0,1,2,3,4,5,6,7,8,9
0.0024,0.0024,0.0024,0.0024,0.0024,0.0024,0.0024,0.0366,0.0024,0.0024
0.0024,0.0024,0.0024,0.0024,0.0024,0.0024,0.0024,0.0366,0.0024,0.0024
0.0024,0.0024,0.0024,0.0024,0.0024,0.0024,0.0024,0.0366,0.0024,0.0024
0.0195,0.0024,0.0024,0.0024,0.0024,0.0024,0.0049,0.0537,0.0024,0.0024
0.0293,0.0024,0.0024,0.0024,0.0024,0.0024,0.0049,0.0659,0.0024,0.0024
0.0269,0.0024,0.0024,0.0024,0.0024,0.0024,0.0024,0.0684,0.0024,0.0024
0.0195,0.0024,0.0024,0.0024,0.0024,0.0024,0.0024,0.0635,0.0024,0.0024
0.0171,0.0024,0.0024,0.0024,0.0024,0.0024,0.0024,0.0684,0.0024,0.0024
0.0122,0.0024,0.0024,0.0024,0.0024,0.0024,0.0024,0.0659,0.0024,0.0024
0.0122,0.0024,0.0024,0.0024,0.0024,0.0024,0.0024,0.061,0.0024,0.0024
0.0098,0.0024,0.0024,0.0024,0.0024,0.0024,0.0024,0.061,0.0024,0.0024
0.0195,0.0024,0.0024,0.0024,0.0024,0.0024,0.0049,0.0659,0.0024,0.0024
0.0195,0.0024,0.0024,0.0049,0.0024,0.0024,0.0024,0.0635,0.0024,0.0024
0.0122,0.0024,0.0024,0.0024,0.0024,0.0024,0.0024,0.0586,0.0024,0.0024
0.0073,0.0024,0.0049,0.0024,0.0024,0.0024,0.0049,0.061,0.0024,0.0024
0.0024,0.0024,0.0024,0.0024,0.0024,0.0024,0.0024,0.0586,0.0024,0.0024
0.0024,0.0024,0.0024,0.0024,0.0024,0.0024,0.0024,0.061,0.0024,0.0024
0.0024,0.0024,0.0024,0.0024,0.0024,0.0024,0.0024,0.0635,0.0024,0.0024
0.0024,0.0024,0.0024,0.0024,0.0024,0.0024,0.0024,0.0635,0.0024,0.0024
0.0024,0.0024,0.0024,0.0024,0.0024,0.0024,0.0024,0.0586,0.0024,0.0024
0.0024,0.0024,0.0024,0.0024,0.0024,0.0024,0.0024,0.0513,0.0024,0.0024
0.0049,0.0024,0.0024,0.0024,0.0024,0.0024,0.0024,0.0464,0.0024,0.0024
0.0024,0.0024,0.0024,0.0024,0.0049,0.0024,0.0024,0.0439,0.0024,0.0024
0.0024,0.0024,0.0024,0.0024,0.0024,0.0024,0.0024,0.0415,0.0024,0.0024
0.0024,0.0024,0.0024,0.0024,0.0024,0.0024,0.0024,0.0391,0.0024,0.0024
0.0024,0.0024,0.0024,0.0024,0.0024,0.0024,0.0024,0.0366,0.0024,0.0024
0.0024,0.0024,0.0024,0.0024,0.0024,0.0024,0.0024,0.0293,0.0024,0.0024
0.0024,0.0024,0.0024,0.0024,0.0024,0.0024,0.0024,0.0244,0.0024,0.0024
0.0024,0.0024,0.0024,0.0049,0.0024,0.0024,0.0024,0.0195,0.0024,0.0024
0.0024,0.0024,0.0024,0.0024,0.0024,0.0024,0.0024,0.0171,0.0024,0.0024
0.0024,0.0024,0.0024,0.0024,0.0024,0.0024,0.0024,0.0171,0.0024,0.0024
0.0073,0.0024,0.0024,0.0024,0.0024,0.0024,0.0024,0.0195,0.0024,0.0024
0.0098,0.0024,0.0024,0.0024,0.0024,0.0024,0.0024,0.0269,0.0024,0.0024
0.0073,0.0024,0.0024,0.0024,0.0024,0.0024,0.0049,0.0317,0.0024,0.0024
0.0024,0.0024,0.0024,0.0024,0.0024,0.0024,0.0024,0.0342,0.0024,0.0024
0.0024,0.0024,0.0024,0.0024,0.0024,0.0024,0.0024,0.0415,0.0024,0.0049
0.0024,0.0024,0.0024,0.0024,0.0024,0.0024,0.0024,0.0464,0.0024,0.0024
0.0024,0.0024,0.0024,0.0024,0.0024,0.0024,0.0024,0.0488,0.0024,0.0024
0.0024,0.0024,0.0024,0.0024,0.0049,0.0024,0.0024,0.0439,0.0024,0.0024
0.0024,0.0024,0.0024,0.0024,0.0024,0.0024,0.0024,0.0366,0.0024,0.0024
0.0024,0.0024,0.0049,0.0024,0.0024,0.0024,0.0024,0.0366,0.0024,0.0024
0.0024,0.0024,0.0024,0.0024,0.0024,0.0024,0.0024,0.0366,0.0024,0.0024
0.0024,0.0024,0.0024,0.0024,0.0024,0.0024,0.0024,0.0317,0.0024,0.0024
0.0049,0.0024,0.0024,0.0024,0.0024,0.0024,0.0024,0.0293,0.0024,0.0024
0.0049,0.0024,0.0024,0.0024,0.0024,0.0024,0.0024,0.0342,0.0024,0.0024
0.0098,0.0024,0.0024,0.0024,0.0024,0.0024,0.0098,0.0415,0.0024,0.0024
0.0146,0.0024,0.0024,0.0024,0.0024,0.0024,0.0146,0.0513,0.0024,0.0024
0.0146,0.0024,0.0024,0.0024,0.0024,0.0024,0.0146,0.0537,0.0024,0.0024
0.0098,0.0024,0.0024,0.0024,0.0024,0.0024,0.0098,0.0537,0.0024,0.0024
0.0269,0.0024,0.0049,0.0024,0.0024,0.0024,0.0049,0.061,0.0024,0.0024
0.0342,0.0024,0.0024,0.0024,0.0024,0.0024,0.0049,0.0635,0.0024,0.0024
0.0317,0.0024,0.0024,0.0024,0.0024,0.0024,0.0024,0.0635,0.0024,0.0024
0.0366,0.0024,0.0024,0.0024,0.0024,0.0024,0.0024,0.0659,0.0024,0.0024
0.0366,0.0024,0.0024,0.0024,0.0024,0.0024,0.0024,0.0684,0.0024,0.0024
0.0293,0.0024,0.0024,0.0024,0.0024,0.0024,0.0024,0.0635,0.0024,0.0024
0.0244,0.0024,0.0024,0.0024,0.0024,0.0024,0.0024,0.0586,0.0024,0.0024
0.0269,0.0024,0.0024,0.0024,0.0024,0.0024,0.0024,0.0659,0.0024,0.0024
0.0317,0.0024,0.0024,0.0024,0.0024,0.0024,0.0024,0.0684,0.0024,0.0024
0.0342,0.0024,0.0049,0.0024,0.0024,0.0024,0.0049,0.0732,0.0024,0.0024
0.0293,0.0024,0.0024,0.0024,0.0024,0.0024,0.0024,0.0659,0.0024,0.0024
0.0171,0.0024,0.0024,0.0024,0.0024,0.0024,0.0024,0.0586,0.0024,0.0024
0.0293,0.0024,0.0024,0.0024,0.0024,0.0024,0.0024,0.0537,0.0024,0.0024
0.0439,0.0024,0.0024,0.0024,0.0024,0.0024,0.0024,0.0562,0.0024,0.0024
0.0464,0.0024,0.0024,0.0024,0.0024,0.0024,0.0024,0.0537,0.0024,0.0024
0.0415,0.0024,0.0024,0.0024,0.0024,0.0024,0.0024,0.0513,0.0024,0.0024
0.0342,0.0024,0.0024,0.0024,0.0024,0.0024,0.0024,0.0488,0.0024,0.0024
0.0269,0.0024,0.0024,0.0024,0.0024,0.0024,0.0024,0.0488,0.0024,0.0024
0.0195,0.0024,0.0024,0.0024,0.0024,0.0024,0.0024,0.0439,0.0024,0.0049
0.0195,0.0024,0.0024,0.0024,0.0024,0.0024,0.0073,0.061,0.0024,0.0049
0.0195,0.0024,0.0024,0.0024,0.0024,0.0024,0.0098,0.0684,0.0024,0.0024
0.0122,0.0024,0.0024,0.0024,0.0024,0.0024,0.0073,0.0659,0.0024,0.0024
0.0049,0.0024,0.0024,0.0024,0.0024,0.0024,0.0024,0.061,0.0024,0.0024
0.0024,0.0024,0.0024,0.0024,0.0024,0.0024,0.0024,0.0562,0.0024,0.0024
0.0024,0.0024,0.0024,0.0024,0.0024,0.0024,0.0024,0.0513,0.0024,0.0024
0.0049,0.0024,0.0024,0.0024,0.0024,0.0024,0.0024,0.0464,0.0024,0.0024
0.0073,0.0024,0.0024,0.0024,0.0024,0.0024,0.0024,0.0464,0.0024,0.0024
0.0024,0.0024,0.0024,0.0024,0.0024,0.0024,0.0024,0.0464,0.0024,0.0024
0.0024,0.0024,0.0024,0.0024,0.0024,0.0024,0.0024,0.0513,0.0024,0.0024
0.0024,0.0024,0.0024,0.0024,0.0024,0.0024,0.0024,0.0537,0.0024,0.0049
0.0024,0.0024,0.0024,0.0024,0.0024,0.0024,0.0024,0.0537,0.0024,0.0024
0.0024,0.0024,0.0024,0.0024,0.0024,0.0024,0.0024,0.0488,0.0024,0.0024
0.0024,0.0024,0.0024,0.0024,0.0024,0.0024,0.0024,0.0415,0.0024,0.0024
0.0024,0.0024,0.0049,0.0024,0.0024,0.0024,0.0024,0.0366,0.0024,0.0024
0.0024,0.0024,0.0024,0.0024,0.0024,0.0024,0.0024,0.0317,0.0024,0.0024
0.0024,0.0024,0.0024,0.0024,0.0024,0.0024,0.0024,0.0342,0.0024,0.0024
0.0024,0.0024,0.0024,0.0024,0.0024,0.0024,0.0024,0.0439,0.0024,0.0024
0.0024,0.0024,0.0024,0.0024,0.0024,0.0024,0.0024,0.0464,0.0024,0.0024
0.0024,0.0024,0.0024,0.0024,0.0024,0.0024,0.0024,0.0439,0.0024,0.0024
0.0024,0.0024,0.0024,0.0024,0.0024,0.0024,0.0024,0.0415,0.0024,0.0024
0.0024,0.0024,0.0024,0.0024,0.0024,0.0024,0.0024,0.0366,0.0024,0.0024
0.0024,0.0024,0.0024,0.0024,0.0024,0.0024,0.0049,0.0415,0.0024,0.0024
0.0073,0.0024,0.0049,0.0024,0.0024,0.0024,0.0073,0.0586,0.0024,0.0024
0.0049,0.0024,0.0024,0.0024,0.0024,0.0024,0.0098,0.0684,0.0024,0.0024
0.0024,0.0024,0.0024,0.0024,0.0024,0.0024,0.0049,0.0684,0.0024,0.0024
0.0024,0.0024,0.0024,0.0024,0.0024,0.0024,0.0024,0.0635,0.0024,0.0024
0.0024,0.0024,0.0024,0.0024,0.0024,0.0024,0.0024,0.0586,0.0024,0.0024
0.0049,0.0024,0.0024,0.0024,0.0024,0.0024,0.0073,0.0732,0.0024,0.0024
0.0122,0.0024,0.0024,0.0024,0.0024,0.0024,0.0146,0.0854,0.0024,0.0024
0.0122,0.0024,0.0024,0.0024,0.0024,0.0024,0.0244,0.0879,0.0024,0.0073
0.0122,0.0024,0.0024,0.0024,0.0024,0.0024,0.0537,0.0879,0.0024,0.0195
0.0122,0.0024,0.0024,0.0024,0.0024,0.0024,0.0854,0.0854,0.0024,0.0244
0.0073,0.0024,0.0024,0.0024,0.0024,0.0024,0.0952,0.0806,0.0024,0.0244
0.0024,0.0024,0.0024,0.0024,0.0024,0.0024,0.0903,0.0732,0.0024,0.0195
0.0024,0.0024,0.0024,0.0024,0.0049,0.0024,0.0854,0.0684,0.0024,0.0146
0.0098,0.0024,0.0024,0.0024,0.0024,0.0024,0.0806,0.0708,0.0024,0.0073
0.0122,0.0024,0.0024,0.0024,0.0024,0.0024,0.083,0.0684,0.0024,0.0024
0.0073,0.0024,0.0024,0.0024,0.0024,0.0024,0.083,0.061,0.0024,0.0049
0.0024,0.0024,0.0024,0.0024,0.0024,0.0024,0.0757,0.0562,0.0024,0.0049
0.0024,0.0024,0.0024,0.0024,0.0024,0.0024,0.0732,0.061,0.0024,0.0073
0.0024,0.0024,0.0024,0.0024,0.0024,0.0024,0.0659,0.0635,0.0024,0.0049
0.0024,0.0024,0.0024,0.0049,0.0024,0.0024,0.0586,0.0635,0.0024,0.0049
0.0024,0.0024,0.0024,0.0024,0.0024,0.0024,0.0537,0.0659,0.0024,0.0024
0.0049,0.0024,0.0024,0.0024,0.0024,0.0024,0.0488,0.0708,0.0024,0.0024
0.0049,0.0024,0.0024,0.0024,0.0024,0.0024,0.0513,0.0708,0.0024,0.0024
0.0024,0.0024,0.0024,0.0024,0.0024,0.0024,0.0635,0.0659,0.0024,0.0024
0.0024,0.0024,0.0024,0.0024,0.0024,0.0024,0.061,0.0684,0.0024,0.0024
0.0024,0.0024,0.0024,0.0024,0.0024,0.0024,0.0513,0.0684,0.0024,0.0024
0.0024,0.0024,0.0024,0.0024,0.0024,0.0024,0.0439,0.0684,0.0024,0.0024
0.0024,0.0024,0.0024,0.0024,0.0024,0.0024,0.0366,0.0732,0.0024,0.0024
0.0024,0.0024,0.0024,0.0024,0.0024,0.0024,0.0269,0.0732,0.0024,0.0024
0.0024,0.0024,0.0024,0.0024,0.0024,0.0024,0.0244,0.0708,0.0024,0.0024
0.0024,0.0024,0.0024,0.0024,0.0024,0.0024,0.022,0.0732,0.0024,0.0024
0.0024,0.0024,0.0024,0.0024,0.0024,0.0024,0.0171,0.0635,0.0024,0.0024
0.0024,0.0024,0.0024,0.0024,0.0024,0.0024,0.0171,0.0708,0.0024,0.0024
0.0073,0.0024,0.0024,0.0024,0.0024,0.0024,0.0366,0.1001,0.0024,0.0024
0.0122,0.0024,0.0024,0.0024,0.0024,0.0024,0.0562,0.1172,0.0024,0.0024
0.0098,0.0024,0.0024,0.0024,0.0024,0.0024,0.061,0.1196,0.0024,0.0024
0.0073,0.0024,0.0024,0.0024,0.0024,0.0024,0.0586,0.1123,0.0024,0.0024
0.0024,0.0024,0.0024,0.0024,0.0024,0.0024,0.0464,0.105,0.0024,0.0024
0.0024,0.0024,0.0024,0.0024,0.0024,0.0024,0.0342,0.0977,0.0024,0.0024
0.0024,0.0024,0.0024,0.0024,0.0024,0.0024,0.022,0.0854,0.0024,0.0024
0.0024,0.0024,0.0024,0.0024,0.0024,0.0024,0.0269,0.0854,0.0024,0.0024
0.0171,0.0024,0.0024,0.0024,0.0024,0.0024,0.0244,0.0952,0.0024,0.0024
0.0269,0.0024,0.0024,0.0024,0.0024,0.0024,0.0366,0.105,0.0024,0.0024
0.0269,0.0024,0.0024,0.0024,0.0024,0.0024,0.0415,0.1074,0.0024,0.0024
0.022,0.0024,0.0024,0.0024,0.0024,0.0024,0.0439,0.105,0.0024,0.0024
0.0171,0.0024,0.0024,0.0024,0.0024,0.0024,0.0464,0.1074,0.0024,0.0024
0.0122,0.0024,0.0024,0.0024,0.0024,0.0024,0.0464,0.105,0.0024,0.0024
0.0122,0.0024,0.0024,0.0024,0.0024,0.0024,0.0513,0.1074,0.0024,0.0024
0.0073,0.0024,0.0024,0.0024,0.0024,0.0024,0.0464,0.105,0.0024,0.0024
0.0024,0.0024,0.0024,0.0024,0.0024,0.0024,0.0464,0.0952,0.0024,0.0024
0.0073,0.0024,0.0024,0.0024,0.0024,0.0024,0.0439,0.0854,0.0024,0.0024
0.0049,0.0024,0.0024,0.0024,0.0024,0.0024,0.0342,0.0708,0.0024,0.0024
0.0024,0.0024,0.0024,0.0024,0.0024,0.0024,0.0269,0.0562,0.0024,0.0024
0.0024,0.0024,0.0024,0.0024,0.0024,0.0024,0.0244,0.0488,0.0024,0.0024
0.0024,0.0024,0.0024,0.0024,0.0024,0.0024,0.0244,0.0488,0.0024,0.0024
0.0024,0.0024,0.0024,0.0024,0.0024,0.0024,0.0195,0.0488,0.0024,0.0024
0.0024,0.0024,0.0024,0.0024,0.0024,0.0024,0.022,0.0537,0.0024,0.0024
0.0073,0.0024,0.0024,0.0024,0.0024,0.0024,0.0244,0.0635,0.0024,0.0024
0.0146,0.0024,0.0024,0.0024,0.0024,0.0024,0.0293,0.083,0.0024,0.0024
0.0122,0.0024,0.0024,0.0024,0.0024,0.0024,0.0317,0.0879,0.0024,0.0024
0.0073,0.0024,0.0024,0.0024,0.0024,0.0024,0.0269,0.0781,0.0024,0.0024
0.0024,0.0024,0.0024,0.0024,0.0024,0.0024,0.0171,0.0684,0.0024,0.0024
0.0098,0.0024,0.0024,0.0024,0.0024,0.0024,0.0122,0.0635,0.0024,0.0024
0.0098,0.0024,0.0024,0.0024,0.0024,0.0024,0.0146,0.0659,0.0024,0.0024
0.0073,0.0024,0.0024,0.0024,0.0024,0.0024,0.0317,0.0659,0.0024,0.0024
0.0024,0.0024,0.0024,0.0024,0.0024,0.0024,0.0391,0.0635,0.0024,0.0024
0.0024,0.0024,0.0024,0.0024,0.0024,0.0024,0.0391,0.0586,0.0024,0.0024
0.0024,0.0024,0.0024,0.0024,0.0024,0.0024,0.0317,0.0513,0.0024,0.0024
0.0024,0.0024,0.0024,0.0024,0.0024,0.0024,0.022,0.0439,0.0024,0.0024
0.0024,0.0024,0.0024,0.0024,0.0049,0.0024,0.0146,0.0391,0.0024,0.0024
0.0024,0.0024,0.0024,0.0024,0.0024,0.0024,0.0098,0.0415,0.0024,0.0049
0.0024,0.0024,0.0024,0.0024,0.0024,0.0024,0.0073,0.0439,0.0024,0.0049
0.0073,0.0024,0.0024,0.0024,0.0024,0.0024,0.0195,0.0635,0.0024,0.0024
0.0122,0.0024,0.0024,0.0024,0.0024,0.0024,0.0342,0.0757,0.0024,0.0024
0.0122,0.0024,0.0024,0.0024,0.0024,0.0024,0.0513,0.0757,0.0024,0.0049
0.0122,0.0024,0.0024,0.0024,0.0024,0.0024,0.061,0.0806,0.0024,0.0024
0.0098,0.0024,0.0024,0.0024,0.0024,0.0024,0.061,0.0757,0.0024,0.0024
0.0073,0.0024,0.0024,0.0024,0.0024,0.0024,0.0537,0.0806,0.0024,0.0024
0.0098,0.0024,0.0024,0.0024,0.0024,0.0024,0.0464,0.0879,0.0024,0.0024
0.0171,0.0024,0.0024,0.0024,0.0024,0.0024,0.0366,0.0879,0.0024,0.0024
0.0171,0.0024,0.0024,0.0024,0.0024,0.0024,0.0269,0.0806,0.0024,0.0024
0.0146,0.0024,0.0024,0.0024,0.0024,0.0024,0.0171,0.0757,0.0024,0.0024
0.0122,0.0024,0.0024,0.0024,0.0024,0.0024,0.0146,0.0757,0.0024,0.0024
0.0122,0.0024,0.0024,0.0024,0.0024,0.0024,0.0244,0.0806,0.0024,0.0024
0.0073,0.0024,0.0024,0.0024,0.0024,0.0024,0.0366,0.0781,0.0024,0.0024
0.0024,0.0024,0.0024,0.0024,0.0024,0.0024,0.0391,0.0781,0.0024,0.0024
0.0024,0.0024,0.0024,0.0024,0.0024,0.0024,0.0366,0.0781,0.0024,0.0024
0.0024,0.0024,0.0024,0.0024,0.0024,0.0024,0.0342,0.0757,0.0024,0.0024
0.0024,0.0024,0.0024,0.0024,0.0024,0.0024,0.0293,0.0732,0.0024,0.0024
0.0024,0.0024,0.0024,0.0024,0.0024,0.0024,0.0269,0.0732,0.0024,0.0024
0.0024,0.0024,0.0024,0.0024,0.0024,0.0024,0.022,0.0635,0.0024,0.0024
0.0024,0.0024,0.0024,0.0024,0.0024,0.0024,0.0171,0.061,0.0024,0.0024
0.0073,0.0024,0.0024,0.0024,0.0024,0.0024,0.0146,0.061,0.0024,0.0024
0.0171,0.0024,0.0024,0.0024,0.0024,0.0024,0.0146,0.0635,0.0024,0.0024
0.0171,0.0024,0.0024,0.0024,0.0024,0.0024,0.0146,0.061,0.0024,0.0024
0.0171,0.0024,0.0024,0.0024,0.0024,0.0024,0.0073,0.061,0.0024,0.0024
0.0122,0.0024,0.0024,0.0024,0.0024,0.0024,0.0024,0.061,0.0024,0.0024
0.0073,0.0024,0.0024,0.0024,0.0024,0.0024,0.0024,0.0586,0.0024,0.0024
0.0024,0.0024,0.0024,0.0024,0.0024,0.0024,0.0122,0.0586,0.0024,0.0024
0.0024,0.0024,0.0024,0.0024,0.0024,0.0024,0.0195,0.0635,0.0024,0.0024
0.0024,0.0024,0.0024,0.0024,0.0024,0.0024,0.0293,0.0732,0.0024,0.0024
0.0024,0.0024,0.0024,0.0024,0.0024,0.0024,0.0342,0.0757,0.0024,0.0024
0.0073,0.0024,0.0024,0.0024,0.0024,0.0024,0.0293,0.0781,0.0024,0.0024
0.0098,0.0024,0.0024,0.0024,0.0024,0.0024,0.0244,0.0732,0.0024,0.0024
0.0073,0.0024,0.0024,0.0024,0.0024,0.0024,0.0171,0.0708,0.0024,0.0024
0.0024,0.0024,0.0024,0.0024,0.0024,0.0024,0.0122,0.0757,0.0024,0.0024
0.0024,0.0024,0.0024,0.0024,0.0024,0.0024,0.0073,0.0806,0.0024,0.0024
0.0024,0.0024,0.0024,0.0024,0.0024,0.0024,0.0171,0.0903,0.0024,0.0024
0.0024,0.0024,0.0024,0.0024,0.0024,0.0024,0.022,0.0952,0.0024,0.0024
0.0024,0.0024,0.0024,0.0024,0.0024,0.0024,0.0244,0.0928,0.0024,0.0024
0.0146,0.0024,0.0024,0.0024,0.0024,0.0024,0.0195,0.0879,0.0024,0.0024
0.0391,0.0024,0.0024,0.0024,0.0024,0.0024,0.0122,0.083,0.0024,0.0024
0.0488,0.0024,0.0024,0.0024,0.0024,0.0024,0.0049,0.0806,0.0024,0.0024
0.0513,0.0024,0.0024,0.0024,0.0024,0.0024,0.0073,0.0806,0.0024,0.0024
0.0464,0.0024,0.0024,0.0024,0.0024,0.0024,0.0098,0.0806,0.0024,0.0024
0.0391,0.0024,0.0024,0.0024,0.0024,0.0024,0.0098,0.0757,0.0024,0.0024
0.0317,0.0024,0.0024,0.0024,0.0024,0.0024,0.0098,0.0684,0.0024,0.0024
0.0244,0.0024,0.0024,0.0024,0.0024,0.0024,0.0098,0.0708,0.0024,0.0024
0.0195,0.0024,0.0024,0.0024,0.0024,0.0024,0.0098,0.0684,0.0024,0.0024
0.0146,0.0024,0.0024,0.0024,0.0024,0.0024,0.0073,0.0659,0.0024,0.0024
0.0098,0.0024,0.0024,0.0024,0.0024,0.0024,0.0049,0.0684,0.0024,0.0024
0.0024,0.0024,0.0024,0.0024,0.0024,0.0024,0.0024,0.0635,0.0024,0.0024
0.0024,0.0024,0.0024,0.0024,0.0024,0.0024,0.0024,0.0586,0.0024,0.0024
0.0024,0.0024,0.0024,0.0024,0.0024,0.0024,0.0024,0.0562,0.0024,0.0024
0.0024,0.0024,0.0024,0.0024,0.0024,0.0024,0.0024,0.0488,0.0024,0.0024
0.0024,0.0024,0.0024,0.0024,0.0024,0.0024,0.0073,0.0513,0.0024,0.0024
0.0024,0.0024,0.0024,0.0024,0.0024,0.0024,0.0171,0.0562,0.0024,0.0024
0.0049,0.0024,0.0024,0.0024,0.0024,0.0024,0.0146,0.0562,0.0024,0.0024
0.0122,0.0024,0.0024,0.0024,0.0024,0.0024,0.0146,0.0586,0.0024,0.0024
0.0195,0.0024,0.0024,0.0024,0.0024,0.0024,0.0098,0.0537,0.0024,0.0024
0.022,0.0024,0.0024,0.0024,0.0024,0.0024,0.0073,0.0562,0.0024,0.0024
0.022,0.0024,0.0024,0.0024,0.0024,0.0024,0.0122,0.0635,0.0024,0.0024
0.022,0.0024,0.0024,0.0024,0.0024,0.0024,0.0146,0.0708,0.0024,0.0024
0.022,0.0024,0.0024,0.0024,0.0024,0.0024,0.0146,0.0757,0.0024,0.0024
0.0195,0.0024,0.0024,0.0024,0.0024,0.0024,0.0146,0.0708,0.0024,0.0024
0.0195,0.0024,0.0024,0.0024,0.0024,0.0024,0.0122,0.0684,0.0024,0.0024
0.0171,0.0024,0.0024,0.0024,0.0024,0.0024,0.0098,0.0635,0.0024,0.0024
0.0122,0.0024,0.0024,0.0024,0.0024,0.0024,0.0049,0.0562,0.0024,0.0024
0.0049,0.0024,0.0024,0.0024,0.0024,0.0024,0.0024,0.0488,0.0024,0.0024
0.0024,0.0024,0.0024,0.0024,0.0024,0.0024,0.0049,0.0513,0.0024,0.0024
0.0098,0.0024,0.0024,0.0024,0.0024,0.0024,0.0098,0.0635,0.0024,0.0024
0.0171,0.0024,0.0024,0.0024,0.0024,0.0024,0.0098,0.0635,0.0024,0.0024
0.0171,0.0024,0.0024,0.0024,0.0024,0.0024,0.0049,0.0562,0.0024,0.0024
0.0146,0.0024,0.0024,0.0024,0.0024,0.0024,0.0024,0.0562,0.0024,0.0024
0.0122,0.0024,0.0024,0.0024,0.0024,0.0024,0.0024,0.0562,0.0024,0.0024
0.0073,0.0024,0.0024,0.0024,0.0024,0.0024,0.0024,0.0562,0.0024,0.0024
0.0146,0.0024,0.0024,0.0024,0.0024,0.0024,0.0024,0.0635,0.0024,0.0024
0.0171,0.0024,0.0024,0.0024,0.0024,0.0024,0.0024,0.0659,0.0024,0.0024
0.0171,0.0024,0.0024,0.0024,0.0024,0.0024,0.0024,0.061,0.0024,0.0024
0.0146,0.0024,0.0024,0.0024,0.0024,0.0024,0.0024,0.061,0.0024,0.0024
0.0269,0.0024,0.0024,0.0024,0.0024,0.0024,0.0024,0.0659,0.0024,0.0024
0.0415,0.0024,0.0024,0.0024,0.0024,0.0024,0.0024,0.0659,0.0024,0.0024
0.0415,0.0024,0.0024,0.0024,0.0024,0.0024,0.0024,0.0659,0.0024,0.0024
0.0415,0.0024,0.0049,0.0024,0.0024,0.0024,0.0049,0.0684,0.0024,0.0024
0.0415,0.0024,0.0024,0.0024,0.0024,0.0024,0.0024,0.0659,0.0024,0.0024
0.0415,0.0024,0.0024,0.0024,0.0024,0.0024,0.0024,0.0635,0.0024,0.0024
0.0391,0.0024,0.0024,0.0024,0.0024,0.0024,0.0024,0.0586,0.0024,0.0024
0.0342,0.0024,0.0024,0.0024,0.0024,0.0024,0.0024,0.0513,0.0024,0.0024
0.0244,0.0024,0.0024,0.0024,0.0024,0.0024,0.0024,0.0415,0.0024,0.0024
0.0146,0.0024,0.0024,0.0024,0.0024,0.0024,0.0024,0.0366,0.0024,0.0024
0.0073,0.0024,0.0024,0.0024,0.0024,0.0024,0.0024,0.0391,0.0024,0.0024
0.0171,0.0024,0.0024,0.0024,0.0024,0.0024,0.0073,0.0464,0.0024,0.0024
0.0244,0.0024,0.0024,0.0024,0.0024,0.0024,0.0049,0.0464,0.0024,0.0024
0.0244,0.0024,0.0024,0.0024,0.0024,0.0024,0.0024,0.0439,0.0024,0.0024
0.0244,0.0024,0.0024,0.0024,0.0024,0.0024,0.0024,0.0415,0.0024,0.0024
0.0342,0.0024,0.0024,0.0024,0.0024,0.0024,0.0024,0.0415,0.0024,0.0024
0.0439,0.0024,0.0024,0.0024,0.0024,0.0024,0.0024,0.0415,0.0024,0.0024
0.0439,0.0024,0.0024,0.0024,0.0024,0.0024,0.0024,0.0415,0.0024,0.0024
0.0415,0.0024,0.0024,0.0024,0.0024,0.0024,0.0049,0.0488,0.0024,0.0024
0.0366,0.0024,0.0024,0.0024,0.0024,0.0024,0.0024,0.0464,0.0024,0.0024
0.0439,0.0024,0.0024,0.0024,0.0024,0.0024,0.0098,0.0586,0.0024,0.0024
0.061,0.0024,0.0024,0.0024,0.0024,0.0024,0.0146,0.0659,0.0024,0.0024
0.0659,0.0024,0.0024,0.0024,0.0024,0.0024,0.0122,0.0659,0.0024,0.0024
0.061,0.0024,0.0024,0.0024,0.0024,0.0024,0.0122,0.0781,0.0024,0.0024
0.0562,0.0024,0.0024,0.0024,0.0024,0.0024,0.0122,0.0854,0.0024,0.0024
0.0464,0.0024,0.0024,0.0024,0.0024,0.0024,0.0073,0.0806,0.0024,0.0024
0.0366,0.0024,0.0024,0.0024,0.0024,0.0024,0.0049,0.0757,0.0024,0.0024
0.0293,0.0024,0.0024,0.0024,0.0024,0.0024,0.0073,0.0781,0.0024,0.0024
0.0171,0.0024,0.0024,0.0024,0.0024,0.0024,0.0049,0.0806,0.0024,0.0024
0.0171,0.0024,0.0024,0.0024,0.0024,0.0024,0.0073,0.083,0.0024,0.0024
0.0317,0.0024,0.0024,0.0024,0.0024,0.0024,0.0049,0.0952,0.0024,0.0024
0.0415,0.0024,0.0024,0.0024,0.0024,0.0024,0.0073,0.1147,0.0024,0.0024
0.0415,0.0024,0.0024,0.0024,0.0024,0.0024,0.0049,0.1196,0.0024,0.0024
0.0342,0.0024,0.0024,0.0024,0.0024,0.0024,0.0024,0.1123,0.0024,0.0024
0.0244,0.0024,0.0024,0.0024,0.0024,0.0024,0.0024,0.1001,0.0024,0.0024
0.0146,0.0024,0.0024,0.0024,0.0024,0.0024,0.0024,0.0903,0.0024,0.0024
0.0195,0.0024,0.0024,0.0024,0.0024,0.0024,0.0024,0.083,0.0024,0.0024
0.0439,0.0024,0.0024,0.0024,0.0024,0.0024,0.0024,0.0806,0.0024,0.0024
0.0537,0.0024,0.0024,0.0024,0.0024,0.0024,0.0024,0.0757,0.0024,0.0024
0.0488,0.0024,0.0024,0.0024,0.0024,0.0024,0.0024,0.0684,0.0024,0.0024
0.0391,0.0024,0.0024,0.0024,0.0024,0.0024,0.0024,0.0586,0.0024,0.0024
0.0317,0.0024,0.0024,0.0024,0.0024,0.0024,0.0024,0.0586,0.0024,0.0024
0.0269,0.0024,0.0024,0.0024,0.0024,0.0024,0.0049,0.0635,0.0024,0.0024
0.022,0.0024,0.0024,0.0024,0.0024,0.0024,0.0049,0.061,0.0024,0.0024
0.0171,0.0024,0.0024,0.0024,0.0024,0.0024,0.0024,0.0562,0.0024,0.0024
0.0171,0.0024,0.0024,0.0024,0.0024,0.0024,0.0024,0.0537,0.0024,0.0024
0.0146,0.0024,0.0024,0.0024,0.0024,0.0024,0.0024,0.0513,0.0024,0.0024
0.0146,0.0024,0.0024,0.0024,0.0024,0.0024,0.0024,0.0537,0.0024,0.0024
0.0244,0.0024,0.0024,0.0024,0.0024,0.0024,0.0073,0.0586,0.0024,0.0024
0.0244,0.0024,0.0024,0.0024,0.0024,0.0024,0.0049,0.0586,0.0024,0.0024
0.022,0.0024,0.0024,0.0024,0.0024,0.0024,0.0049,0.0586,0.0024,0.0024
0.0195,0.0024,0.0024,0.0024,0.0024,0.0024,0.0073,0.061,0.0024,0.0024
0.0244,0.0024,0.0024,0.0024,0.0024,0.0024,0.0098,0.0708,0.0024,0.0024
0.022,0.0024,0.0024,0.0024,0.0024,0.0024,0.0122,0.0757,0.0024,0.0024
0.0146,0.0024,0.0024,0.0024,0.0024,0.0024,0.0073,0.0708,0.0024,0.0024
0.0073,0.0024,0.0024,0.0024,0.0024,0.0024,0.0049,0.0635,0.0024,0.0024
0.0049,0.0024,0.0024,0.0024,0.0024,0.0024,0.0024,0.061,0.0024,0.0024
0.0024,0.0024,0.0024,0.0024,0.0024,0.0024,0.0024,0.0586,0.0024,0.0024
0.0024,0.0024,0.0024,0.0024,0.0024,0.0024,0.0073,0.0635,0.0024,0.0024
0.0024,0.0024,0.0024,0.0024,0.0024,0.0024,0.0073,0.0586,0.0024,0.0024
0.0024,0.0024,0.0024,0.0024,0.0024,0.0024,0.0024,0.0562,0.0024,0.0024
0.0024,0.0024,0.0024,0.0024,0.0024,0.0024,0.0024,0.0513,0.0024,0.0024
0.0024,0.0024,0.0024,0.0024,0.0024,0.0024,0.0024,0.0488,0.0024,0.0024
0.0024,0.0024,0.0024,0.0024,0.0024,0.0024,0.0024,0.0488,0.0024,0.0024
0.0098,0.0024,0.0049,0.0024,0.0024,0.0024,0.0146,0.0562,0.0024,0.0024
0.0146,0.0024,0.0024,0.0024,0.0024,0.0024,0.0244,0.0684,0.0024,0.0024
0.0122,0.0024,0.0024,0.0024,0.0024,0.0024,0.0244,0.0732,0.0024,0.0024
0.0073,0.0024,0.0024,0.0024,0.0024,0.0024,0.0244,0.0757,0.0024,0.0049
0.0098,0.0024,0.0024,0.0024,0.0024,0.0024,0.0317,0.0781,0.0024,0.0024
0.0073,0.0024,0.0024,0.0024,0.0024,0.0024,0.0366,0.0757,0.0024,0.0024
0.0049,0.0024,0.0024,0.0024,0.0024,0.0024,0.0293,0.0684,0.0024,0.0024
0.0024,0.0024,0.0024,0.0024,0.0024,0.0024,0.0293,0.0684,0.0024,0.0024
0.0024,0.0024,0.0024,0.0024,0.0024,0.0024,0.0488,0.0879,0.0024,0.0024
0.0049,0.0024,0.0024,0.0024,0.0024,0.0024,0.0586,0.0928,0.0024,0.0024
0.0049,0.0024,0.0024,0.0024,0.0024,0.0024,0.0562,0.0903,0.0024,0.0024
0.0024,0.0024,0.0024,0.0024,0.0024,0.0024,0.0586,0.0854,0.0024,0.0024
0.0024,0.0024,0.0024,0.0024,0.0024,0.0024,0.0659,0.0806,0.0024,0.0024
0.0024,0.0024,0.0024,0.0024,0.0024,0.0024,0.0635,0.0781,0.0024,0.0024
0.0024,0.0024,0.0024,0.0024,0.0024,0.0024,0.0586,0.0854,0.0024,0.0024
0.0024,0.0024,0.0024,0.0024,0.0024,0.0024,0.0513,0.0806,0.0024,0.0024
0.0024,0.0024,0.0024,0.0024,0.0024,0.0024,0.0439,0.083,0.0024,0.0024
0.0024,0.0024,0.0024,0.0024,0.0024,0.0024,0.0342,0.0806,0.0024,0.0024
0.0024,0.0024,0.0024,0.0024,0.0024,0.0024,0.0269,0.0732,0.0024,0.0024
0.0024,0.0024,0.0024,0.0024,0.0024,0.0024,0.022,0.0708,0.0024,0.0024
0.0024,0.0024,0.0024,0.0024,0.0024,0.0024,0.0146,0.0635,0.0024,0.0024
0.0024,0.0024,0.0024,0.0024,0.0024,0.0024,0.0171,0.0659,0.0024,0.0024
0.0024,0.0024,0.0024,0.0024,0.0024,0.0024,0.0269,0.0659,0.0024,0.0024
0.0024,0.0024,0.0024,0.0024,0.0024,0.0024,0.0391,0.0659,0.0024,0.0024
0.0024,0.0024,0.0024,0.0024,0.0024,0.0024,0.0391,0.061,0.0024,0.0024
0.0024,0.0024,0.0024,0.0024,0.0024,0.0024,0.0366,0.0684,0.0024,0.0024
0.0024,0.0024,0.0024,0.0024,0.0024,0.0024,0.0293,0.0708,0.0024,0.0024
0.0049,0.0024,0.0024,0.0024,0.0024,0.0024,0.022,0.0684,0.0024,0.0024
0.0073,0.0024,0.0024,0.0024,0.0024,0.0024,0.0171,0.0684,0.0024,0.0024
0.0073,0.0024,0.0024,0.0024,0.0024,0.0024,0.0122,0.0684,0.0024,0.0024
0.0049,0.0024,0.0024,0.0024,0.0024,0.0024,0.0122,0.0659,0.0024,0.0024
0.0024,0.0024,0.0024,0.0024,0.0024,0.0024,0.0098,0.061,0.0024,0.0024
0.0024,0.0024,0.0024,0.0024,0.0024,0.0024,0.0098,0.0659,0.0024,0.0024
0.0024,0.0024,0.0024,0.0024,0.0024,0.0024,0.0073,0.0659,0.0024,0.0024
0.0024,0.0024,0.0024,0.0024,0.0024,0.0024,0.0098,0.0635,0.0024,0.0024
0.0049,0.0024,0.0024,0.0024,0.0024,0.0024,0.0122,0.061,0.0024,0.0024
0.0073,0.0024,0.0024,0.0024,0.0024,0.0024,0.0122,0.0635,0.0024,0.0024
0.0098,0.0024,0.0024,0.0024,0.0024,0.0024,0.0146,0.0732,0.0024,0.0024
0.0146,0.0024,0.0024,0.0024,0.0024,0.0024,0.0122,0.0757,0.0024,0.0024
0.0122,0.0024,0.0024,0.0024,0.0024,0.0024,0.0146,0.0757,0.0024,0.0024
0.0122,0.0024,0.0024,0.0024,0.0024,0.0024,0.0317,0.0781,0.0024,0.0024
0.0122,0.0024,0.0024,0.0024,0.0024,0.0024,0.0366,0.0806,0.0024,0.0024
0.0073,0.0024,0.0024,0.0024,0.0024,0.0024,0.0366,0.0781,0.0024,0.0024
0.0049,0.0024,0.0024,0.0024,0.0024,0.0024,0.0415,0.0879,0.0024,0.0024
0.0024,0.0024,0.0024,0.0024,0.0024,0.0024,0.0391,0.0879,0.0024,0.0024
0.0024,0.0024,0.0024,0.0024,0.0024,0.0024,0.0342,0.0854,0.0024,0.0024
0.0049,0.0024,0.0024,0.0024,0.0024,0.0024,0.0293,0.0806,0.0024,0.0024
0.0024,0.0024,0.0024,0.0024,0.0024,0.0024,0.022,0.0732,0.0024,0.0024
0.0024,0.0024,0.0024,0.0024,0.0024,0.0024,0.0171,0.0684,0.0024,0.0024
0.0024,0.0024,0.0024,0.0024,0.0024,0.0024,0.0146,0.0659,0.0024,0.0024
0.0024,0.0024,0.0024,0.0049,0.0024,0.0024,0.0269,0.0708,0.0024,0.0024
0.0024,0.0024,0.0024,0.0024,0.0024,0.0024,0.0293,0.0684,0.0024,0.0024
0.0024,0.0024,0.0024,0.0024,0.0024,0.0024,0.0244,0.061,0.0024,0.0024
0.0024,0.0024,0.0024,0.0024,0.0024,0.0024,0.0171,0.0537,0.0024,0.0024
0.0024,0.0024,0.0024,0.0024,0.0024,0.0024,0.0122,0.0488,0.0024,0.0024
0.0024,0.0024,0.0024,0.0024,0.0024,0.0024,0.0049,0.0415,0.0024,0.0024
0.0024,0.0024,0.0024,0.0024,0.0024,0.0024,0.0024,0.0391,0.0024,0.0024
0.0049,0.0024,0.0024,0.0024,0.0024,0.0024,0.0024,0.0366,0.0024,0.0024
0.0049,0.0024,0.0024,0.0024,0.0024,0.0024,0.0024,0.0366,0.0024,0.0049
0.0049,0.0024,0.0024,0.0024,0.0024,0.0024,0.0024,0.0391,0.0024,0.0024
0.0024,0.0024,0.0024,0.0024,0.0024,0.0024,0.0024,0.0439,0.0024,0.0024
0.0024,0.0024,0.0024,0.0024,0.0024,0.0024,0.0024,0.0464,0.0024,0.0024
0.0024,0.0024,0.0024,0.0024,0.0024,0.0024,0.0049,0.0464,0.0024,0.0024
0.0024,0.0024,0.0024,0.0024,0.0024,0.0024,0.0073,0.0488,0.0024,0.0024
0.0024,0.0024,0.0024,0.0024,0.0024,0.0024,0.0098,0.0562,0.0024,0.0024
0.0024,0.0024,0.0024,0.0024,0.0024,0.0024,0.0098,0.0562,0.0024,0.0024
0.0024,0.0024,0.0024,0.0024,0.0024,0.0024,0.0049,0.0562,0.0024,0.0024
0.0024,0.0024,0.0024,0.0024,0.0024,0.0024,0.0024,0.0537,0.0024,0.0024
0.0024,0.0024,0.0024,0.0024,0.0024,0.0024,0.0024,0.0537,0.0024,0.0024
0.0024,0.0024,0.0024,0.0024,0.0024,0.0024,0.0024,0.0513,0.0024,0.0024
0.0024,0.0024,0.0024,0.0024,0.0024,0.0024,0.0024,0.0513,0.0024,0.0024
0.0024,0.0024,0.0024,0.0024,0.0024,0.0024,0.0024,0.0537,0.0024,0.0024
0.0024,0.0024,0.0024,0.0024,0.0024,0.0024,0.0073,0.061,0.0024,0.0024
0.0024,0.0024,0.0024,0.0024,0.0024,0.0024,0.0073,0.0635,0.0024,0.0024
0.0024,0.0024,0.0024,0.0024,0.0024,0.0024,0.0024,0.061,0.0024,0.0024
0.0024,0.0024,0.0024,0.0024,0.0024,0.0024,0.0024,0.0562,0.0024,0.0024
0.0024,0.0024,0.0024,0.0024,0.0024,0.0024,0.0024,0.0488,0.0024,0.0024
0.0024,0.0024,0.0024,0.0024,0.0024,0.0024,0.0049,0.0464,0.0024,0.0024
0.0024,0.0024,0.0024,0.0024,0.0024,0.0024,0.0049,0.0464,0.0024,0.0024
0.0024,0.0024,0.0024,0.0024,0.0024,0.0024,0.0073,0.0513,0.0024,0.0024
0.0024,0.0024,0.0024,0.0024,0.0024,0.0024,0.0073,0.0513,0.0024,0.0024
0.0073,0.0024,0.0049,0.0024,0.0024,0.0024,0.0049,0.0513,0.0024,0.0024
0.0098,0.0024,0.0024,0.0024,0.0024,0.0024,0.0024,0.0464,0.0024,0.0024
0.0049,0.0024,0.0024,0.0024,0.0024,0.0024,0.0024,0.0391,0.0024,0.0024
0.0073,0.0024,0.0049,0.0024,0.0049,0.0024,0.0024,0.0366,0.0024,0.0024
0.0049,0.0024,0.0024,0.0024,0.0024,0.0024,0.0024,0.0317,0.0024,0.0024
0.0024,0.0024,0.0024,0.0024,0.0024,0.0024,0.0146,0.0366,0.0024,0.0024
0.0024,0.0024,0.0024,0.0024,0.0024,0.0024,0.0269,0.0439,0.0024,0.0024
0.0024,0.0024,0.0024,0.0049,0.0024,0.0024,0.0415,0.0464,0.0024,0.0024
0.0024,0.0024,0.0024,0.0024,0.0024,0.0024,0.0488,0.061,0.0024,0.0024
0.0024,0.0024,0.0024,0.0024,0.0024,0.0024,0.0439,0.0635,0.0024,0.0024
0.0024,0.0024,0.0024,0.0024,0.0024,0.0024,0.0366,0.0635,0.0024,0.0024
0.0024,0.0024,0.0024,0.0024,0.0024,0.0024,0.0269,0.0586,0.0024,0.0024
0.0024,0.0024,0.0024,0.0024,0.0049,0.0024,0.0195,0.0513,0.0024,0.0024
0.0024,0.0024,0.0024,0.0024,0.0024,0.0024,0.0171,0.0537,0.0024,0.0024
0.0024,0.0024,0.0024,0.0024,0.0024,0.0024,0.0366,0.061,0.0024,0.0024
0.0024,0.0024,0.0024,0.0024,0.0024,0.0024,0.0537,0.0659,0.0024,0.0024
0.0024,0.0024,0.0024,0.0024,0.0024,0.0024,0.061,0.0708,0.0024,0.0024
0.0024,0.0024,0.0024,0.0024,0.0024,0.0024,0.0537,0.0684,0.0024,0.0024
0.0024,0.0024,0.0024,0.0024,0.0024,0.0024,0.0464,0.0635,0.0024,0.0024
0.0024,0.0024,0.0024,0.0024,0.0024,0.0024,0.0391,0.0659,0.0024,0.0024
0.0024,0.0024,0.0024,0.0024,0.0024,0.0024,0.0317,0.0635,0.0024,0.0024
0.0024,0.0024,0.0024,0.0024,0.0024,0.0024,0.022,0.0562,0.0024,0.0024
0.0024,0.0024,0.0024,0.0024,0.0024,0.0024,0.0171,0.0513,0.0024,0.0024
0.0024,0.0024,0.0024,0.0024,0.0024,0.0024,0.0244,0.0586,0.0024,0.0024
0.0049,0.0024,0.0024,0.0024,0.0024,0.0024,0.0269,0.061,0.0024,0.0024
0.0049,0.0024,0.0024,0.0024,0.0024,0.0024,0.0244,0.061,0.0024,0.0024
0.0073,0.0024,0.0024,0.0024,0.0024,0.0024,0.0269,0.0659,0.0049,0.0024
0.0049,0.0024,0.0024,0.0024,0.0024,0.0024,0.0415,0.0757,0.0024,0.0024
0.0024,0.0024,0.0024,0.0024,0.0024,0.0024,0.0586,0.083,0.0024,0.0024
0.0024,0.0024,0.0024,0.0024,0.0049,0.0024,0.0586,0.0806,0.0024,0.0024
0.0024,0.0024,0.0024,0.0024,0.0024,0.0024,0.0464,0.0732,0.0024,0.0024
0.0024,0.0024,0.0024,0.0024,0.0024,0.0024,0.0391,0.0684,0.0024,0.0024
0.0024,0.0024,0.0024,0.0024,0.0024,0.0024,0.0317,0.0635,0.0024,0.0024
0.0024,0.0024,0.0024,0.0024,0.0024,0.0024,0.0244,0.0586,0.0024,0.0024
0.0024,0.0024,0.0024,0.0024,0.0024,0.0024,0.0171,0.0562,0.0024,0.0024
0.0024,0.0024,0.0024,0.0024,0.0024,0.0024,0.0244,0.061,0.0024,0.0024
0.0024,0.0024,0.0024,0.0024,0.0024,0.0024,0.0342,0.0684,0.0024,0.0024
0.0024,0.0024,0.0024,0.0024,0.0024,0.0024,0.0464,0.0757,0.0024,0.0073
0.0024,0.0024,0.0024,0.0024,0.0024,0.0024,0.0464,0.0757,0.0024,0.0049
0.0049,0.0024,0.0024,0.0024,0.0024,0.0024,0.0464,0.0732,0.0024,0.0024
0.0049,0.0024,0.0024,0.0024,0.0024,0.0024,0.0391,0.0659,0.0024,0.0024
0.0024,0.0024,0.0024,0.0024,0.0024,0.0024,0.0317,0.0635,0.0024,0.0024
0.0049,0.0024,0.0024,0.0024,0.0024,0.0024,0.0513,0.0757,0.0024,0.0073
0.0073,0.0024,0.0024,0.0024,0.0024,0.0024,0.0586,0.0781,0.0024,0.0146
0.0098,0.0024,0.0024,0.0024,0.0024,0.0024,0.0562,0.0806,0.0024,0.0122
0.0098,0.0024,0.0024,0.0024,0.0024,0.0024,0.0488,0.0781,0.0024,0.0098
0.0098,0.0024,0.0024,0.0024,0.0024,0.0024,0.0439,0.0781,0.0024,0.0098
0.0146,0.0024,0.0024,0.0024,0.0024,0.0024,0.061,0.083,0.0024,0.0439
0.022,0.0024,0.0024,0.0024,0.0024,0.0024,0.0854,0.0952,0.0024,0.0708
0.0244,0.0024,0.0024,0.0024,0.0024,0.0024,0.0903,0.105,0.0024,0.0732
0.0244,0.0024,0.0024,0.0024,0.0024,0.0024,0.0854,0.1025,0.0024,0.0659
0.0195,0.0024,0.0024,0.0024,0.0024,0.0024,0.0757,0.0977,0.0024,0.0513
0.0146,0.0024,0.0024,0.0024,0.0024,0.0024,0.0659,0.0854,0.0024,0.0439
0.0195,0.0024,0.0024,0.0024,0.0024,0.0024,0.0732,0.0806,0.0024,0.0635
0.0269,0.0024,0.0024,0.0024,0.0049,0.0024,0.0806,0.0806,0.0024,0.0684
0.0269,0.0024,0.0024,0.0024,0.0024,0.0024,0.0928,0.0879,0.0024,0.083
0.0391,0.0024,0.0024,0.0024,0.0024,0.0024,0.1172,0.1074,0.0024,0.105
0.0464,0.0024,0.0024,0.0024,0.0024,0.0024,0.1318,0.1294,0.0024,0.105
0.0415,0.0024,0.0024,0.0024,0.0024,0.0024,0.127,0.1318,0.0024,0.0952
0.0366,0.0024,0.0024,0.0024,0.0024,0.0024,0.1196,0.1221,0.0024,0.0781
0.0366,0.0024,0.0024,0.0024,0.0024,0.0024,0.1172,0.1123,0.0024,0.0635
0.0342,0.0024,0.0024,0.0024,0.0024,0.0024,0.1099,0.1074,0.0024,0.0488
0.0415,0.0024,0.0024,0.0024,0.0024,0.0024,0.1318,0.1099,0.0024,0.0586
0.0537,0.0024,0.0024,0.0024,0.0024,0.0024,0.1953,0.1221,0.0024,0.0708
0.0513,0.0024,0.0049,0.0024,0.0024,0.0024,0.2173,0.1221,0.0024,0.0684
0.0464,0.0024,0.0024,0.0024,0.0024,0.0024,0.2441,0.1221,0.0024,0.0586
0.0366,0.0024,0.0024,0.0024,0.0024,0.0024,0.249,0.127,0.0024,0.0464
0.0342,0.0024,0.0024,0.0024,0.0024,0.0024,0.2588,0.1318,0.0024,0.0415
0.0488,0.0098,0.0024,0.0024,0.0049,0.0024,0.4077,0.166,0.0024,0.0659
0.0708,0.0146,0.0024,0.0024,0.0024,0.0024,0.4858,0.2002,0.0024,0.0781
0.083,0.0122,0.0024,0.0024,0.0024,0.0024,0.542,0.2148,0.0024,0.0879
0.0854,0.0024,0.0024,0.0024,0.0024,0.0024,0.5859,0.2148,0.0024,0.0879
0.083,0.0024,0.0024,0.0073,0.0024,0.0024,0.5957,0.1978,0.0024,0.0977
0.0854,0.0171,0.0171,0.022,0.0024,0.0024,0.6396,0.2002,0.0586,0.1172
0.0903,0.0757,0.0854,0.0659,0.0024,0.0024,0.7007,0.2124,0.1636,0.1392
0.1196,0.1343,0.1343,0.083,0.0024,0.0024,0.7983,0.2661,0.2124,0.1929
0.144,0.166,0.1514,0.083,0.0024,0.0049,0.8398,0.3052,0.2368,0.2124
0.1489,0.1733,0.1465,0.0757,0.0049,0.0049,0.8545,0.3076,0.2441,0.21
0.1392,0.1587,0.127,0.061,0.0049,0.0024,0.8301,0.2856,0.2271,0.1978
0.127,0.1367,0.1001,0.0464,0.0024,0.0024,0.7837,0.2539,0.1953,0.1831
0.1538,0.1343,0.0806,0.0342,0.0024,0.0024,0.7373,0.2271,0.1685,0.188
0.1685,0.1465,0.0684,0.0293,0.0024,0.0024,0.7007,0.2148,0.1465,0.2222
0.1978,0.3052,0.105,0.0513,0.0049,0.0098,0.8667,0.2661,0.2124,0.354
0.2319,0.4321,0.2295,0.0806,0.0049,0.0122,1.0327,0.2881,0.4834,0.3955
0.2417,0.4858,0.3052,0.0879,0.0024,0.0146,1.084,0.2856,0.6812,0.3931
0.2515,0.5005,0.3247,0.083,0.0024,0.0098,1.0864,0.2734,0.7568,0.3931
0.2515,0.4858,0.3052,0.0708,0.0024,0.0073,1.0449,0.2734,0.8325,0.3955
0.2319,0.4492,0.2661,0.0562,0.0024,0.0073,0.9668,0.2661,0.8081,0.3833
0.2368,0.4224,0.2246,0.0439,0.0024,0.0098,1.084,0.3003,0.7373,0.4639
0.2466,0.4443,0.1831,0.0342,0.0024,0.0122,1.1792,0.3223,0.6665,0.4858
0.271,0.437,0.1489,0.0244,0.0024,0.0146,1.2622,0.3345,0.6177,0.4736
0.3052,0.4956,0.1465,0.0195,0.0024,0.0122,1.2769,0.3345,0.5786,0.4468
0.3003,0.5005,0.1318,0.0171,0.0024,0.0098,1.2476,0.3247,0.5176,0.4126
0.2832,0.498,0.1245,0.0317,0.0024,0.0122,1.2988,0.3223,0.4688,0.4126
0.2588,0.4858,0.1538,0.0513,0.0024,0.0146,1.3257,0.3223,0.4761,0.3906
0.2515,0.4565,0.1733,0.0562,0.0024,0.0146,1.3062,0.3101,0.481,0.4712
0.2661,0.4248,0.1904,0.0513,0.0024,0.0122,1.3501,0.3174,0.5615,0.5859
0.293,0.4175,0.2344,0.0439,0.0024,0.0098,1.3428,0.332,0.6519,0.5908
0.3296,0.4028,0.2368,0.0342,0.0024,0.0146,1.521,0.376,0.647,0.5688
0.3394,0.3687,0.2148,0.0269,0.0024,0.0195,1.6357,0.4102,0.5933,0.5273
0.3174,0.3296,0.1855,0.0171,0.0024,0.0195,1.5601,0.4053,0.5322,0.4736
0.2905,0.354,0.166,0.0073,0.0024,0.0171,1.438,0.3809,0.4932,0.4126
0.2563,0.3784,0.1807,0.0024,0.0024,0.0098,1.2817,0.3467,0.4736,0.3589
0.2515,0.376,0.1782,0.0024,0.0024,0.0049,1.1304,0.3101,0.4346,0.3711
0.2759,0.3564,0.1611,0.0024,0.0024,0.0024,1.1743,0.2954,0.3833,0.5737
0.2734,0.3296,0.1416,0.0024,0.0024,0.0049,1.1646,0.2808,0.3833,0.6592
0.2954,0.3003,0.1196,0.0049,0.0024,0.0049,1.0913,0.2612,0.3711,0.6494
0.3223,0.2661,0.1318,0.0024,0.0049,0.0049,0.9961,0.2515,0.3491,0.6055
0.3394,0.2393,0.1538,0.0024,0.0024,0.0073,0.9717,0.2734,0.3247,0.5566
0.3711,0.21,0.1514,0.0049,0.0049,0.0122,0.9888,0.2954,0.2954,0.5298
0.3564,0.1782,0.1367,0.0024,0.0024,0.0146,0.9473,0.2881,0.271,0.481
0.3247,0.1489,0.1172,0.0024,0.0024,0.0122,0.8765,0.2759,0.2734,0.4346
0.3052,0.1416,0.0977,0.0024,0.0024,0.0073,0.8398,0.2637,0.2637,0.3857
0.4053,0.1538,0.083,0.0024,0.0024,0.0122,0.9961,0.2954,0.2441,0.3882
0.5322,0.1563,0.0708,0.0024,0.0049,0.0195,1.2671,0.3369,0.2295,0.5347
0.6885,0.1831,0.0659,0.0049,0.0024,0.0195,1.3379,0.3564,0.2173,0.5957
0.7153,0.1953,0.1221,0.0098,0.0024,0.0195,1.3672,0.3491,0.2979,0.7715
0.6787,0.2124,0.1855,0.0195,0.0024,0.022,1.3794,0.3345,0.4346,0.8521
0.647,0.2124,0.2002,0.0244,0.0024,0.022,1.3306,0.3174,0.5005,0.8374
0.6274,0.2319,0.1904,0.022,0.0024,0.0269,1.438,0.3223,0.498,0.7788
0.5957,0.2759,0.1685,0.0195,0.0024,0.0269,1.4575,0.3271,0.4712,0.6885
0.5737,0.2979,0.1489,0.0171,0.0024,0.0269,1.4673,0.3296,0.4321,0.625
0.5322,0.3052,0.1392,0.0146,0.0024,0.0317,1.4966,0.3345,0.4199,0.5713
0.498,0.3198,0.1343,0.0122,0.0024,0.0269,1.4233,0.3271,0.4663,0.5762
0.4956,0.3198,0.1221,0.0073,0.0024,0.0244,1.4648,0.3174,0.4663,0.6909
0.481,0.332,0.1074,0.0049,0.0024,0.022,1.4038,0.2881,0.4468,0.6958
0.603,0.3979,0.105,0.0098,0.0024,0.0171,1.46,0.2832,0.4199,0.6519
0.647,0.4175,0.0952,0.0098,0.0024,0.0171,1.5576,0.3101,0.3784,0.6274
0.6226,0.4004,0.083,0.0073,0.0024,0.0195,1.6089,0.332,0.354,0.5811
0.5762,0.3833,0.083,0.0049,0.0024,0.0195,1.6064,0.3369,0.3735,0.5322
0.5371,0.3638,0.0806,0.0073,0.0024,0.0146,1.4917,0.3223,0.3931,0.4712
0.5737,0.3516,0.0732,0.0073,0.0024,0.0098,1.3721,0.3003,0.4053,0.437
0.5688,0.3467,0.0684,0.0098,0.0024,0.0122,1.4648,0.2979,0.3833,0.5396
0.542,0.3394,0.0879,0.0146,0.0049,0.0122,1.5015,0.3149,0.3931,0.5762
0.5054,0.3198,0.1001,0.0195,0.0073,0.0122,1.4453,0.3174,0.4053,0.5615
0.5444,0.3027,0.0952,0.0195,0.0073,0.0098,1.3867,0.3027,0.3906,0.5322
0.6079,0.2979,0.0854,0.0171,0.0049,0.0098,1.4282,0.2856,0.3784,0.4883
0.7788,0.3564,0.0854,0.0171,0.0049,0.0098,1.4771,0.2832,0.3613,0.4492
0.8447,0.4004,0.0806,0.0195,0.0049,0.0073,1.4526,0.2905,0.3345,0.4541
0.8325,0.4053,0.0757,0.0195,0.0024,0.0098,1.4233,0.3027,0.3418,0.564
0.7715,0.3809,0.0732,0.0195,0.0024,0.0122,1.499,0.3174,0.332,0.5933
0.6934,0.3809,0.0635,0.0171,0.0024,0.0122,1.5454,0.3467,0.3076,0.5664
0.708,0.4102,0.0659,0.0195,0.0024,0.0171,1.6016,0.3589,0.3149,0.5322
0.7788,0.4541,0.0757,0.0195,0.0024,0.022,1.8726,0.3882,0.3345,0.4907
0.7935,0.4736,0.0781,0.022,0.0024,0.022,1.8896,0.3809,0.3882,0.4565
0.8765,0.4639,0.083,0.0244,0.0049,0.022,1.7944,0.3711,0.4004,0.4321
0.8984,0.4395,0.0854,0.0293,0.0073,0.022,1.8359,0.3735,0.3833,0.4248
0.8862,0.4224,0.0903,0.0317,0.0073,0.022,1.8237,0.3735,0.3687,0.4077
0.8594,0.4199,0.0854,0.0317,0.0073,0.0244,1.8335,0.3882,0.3442,0.3979
0.8057,0.4077,0.0928,0.0317,0.0073,0.0342,2.0313,0.4346,0.3418,0.4639
0.8667,0.4248,0.0952,0.0293,0.0073,0.0366,2.0313,0.437,0.3613,0.481
0.9351,0.4248,0.1001,0.0317,0.0073,0.0366,2.0288,0.4272,0.376,0.4883
0.9521,0.4419,0.1074,0.0342,0.0098,0.0391,2.0508,0.4419,0.3809,0.6055
1.084,0.4761,0.1074,0.0366,0.0122,0.0415,2.1753,0.459,0.354,0.6934
1.1743,0.4761,0.1025,0.0342,0.0146,0.0415,2.2046,0.459,0.3247,0.6958
1.2329,0.4932,0.1099,0.0366,0.0122,0.0415,2.124,0.4492,0.3296,0.6519
1.3501,0.6396,0.1392,0.0439,0.0171,0.0464,2.0068,0.4517,0.3394,0.6104
1.3892,0.7446,0.1636,0.0537,0.0244,0.0488,1.8604,0.4419,0.3394,0.5615
1.311,0.7813,0.1733,0.0586,0.0244,0.0488,1.792,0.4199,0.332,0.5176
1.2964,0.7886,0.1709,0.061,0.0293,0.0488,1.8066,0.437,0.3491,0.4932
1.521,0.8154,0.1611,0.0659,0.0342,0.0513,1.7651,0.4517,0.3711,0.4639
1.5649,0.8057,0.1538,0.0659,0.0342,0.0464,1.6895,0.4443,0.4248,0.4126
1.604,0.8032,0.1563,0.0635,0.0342,0.0415,1.6699,0.437,0.498,0.3589
1.7749,0.791,0.1636,0.0659,0.0342,0.0391,1.5796,0.4175,0.5225,0.3149
1.814,0.752,0.1538,0.0659,0.0342,0.0488,1.4429,0.4028,0.5078,0.3003
1.7114,0.6909,0.1416,0.061,0.0342,0.0684,1.3525,0.3882,0.4688,0.3076
1.5698,0.6226,0.127,0.0562,0.0342,0.0757,1.2524,0.3979,0.4541,0.2905
1.5625,0.6616,0.1587,0.0684,0.0488,0.0928,1.2134,0.4102,0.4883,0.2686
1.8066,0.957,0.249,0.1025,0.0757,0.1123,1.2109,0.4419,0.5322,0.271
1.8726,1.1279,0.3076,0.1245,0.0903,0.1196,1.1841,0.4565,0.5493,0.2661
1.7969,1.1865,0.3198,0.1318,0.0952,0.1172,1.2085,0.4541,0.5249,0.2563
1.6577,1.1475,0.3003,0.1245,0.0879,0.105,1.1401,0.4321,0.4956,0.2319
1.5869,1.0547,0.2612,0.1074,0.0757,0.0879,1.0303,0.4126,0.5005,0.2026
1.5308,0.9644,0.2271,0.0928,0.0659,0.0952,0.9497,0.3955,0.4834,0.2026
1.4624,0.8765,0.1978,0.083,0.0586,0.0952,0.8545,0.3662,0.4443,0.2075
1.3574,0.8423,0.1904,0.0854,0.061,0.1074,0.8228,0.3516,0.4443,0.2856
1.4648,0.9204,0.1978,0.0977,0.0659,0.1172,0.8398,0.3394,0.4932,0.3174
1.6553,0.979,0.2002,0.1001,0.0635,0.1147,0.8521,0.332,0.52,0.3149
1.9214,1.0132,0.2026,0.1001,0.0659,0.1367,1.0107,0.332,0.564,0.3589
2.0557,0.9863,0.1904,0.0928,0.0659,0.1489,1.1133,0.3296,0.5762,0.3613
2.0044,0.9668,0.1929,0.0928,0.0635,0.144,1.0889,0.3223,0.6299,0.3564
2.0776,1.0303,0.2173,0.0977,0.0659,0.1392,1.0571,0.3149,0.6934,0.376
2.1484,1.123,0.2515,0.1123,0.0732,0.1343,0.9839,0.3027,0.6836,0.3833
2.0898,1.1548,0.2661,0.1172,0.0757,0.1318,0.9644,0.2979,0.6567,0.4346
1.9995,1.1499,0.2637,0.1172,0.0806,0.1318,0.9253,0.2979,0.6226,0.437
1.9092,1.1694,0.2783,0.1245,0.0854,0.1318,0.8765,0.3101,0.6372,0.4224
2.1143,1.2476,0.3296,0.1465,0.1025,0.1514,0.8838,0.3418,0.7544,0.4663
2.2021,1.3281,0.3711,0.1563,0.1123,0.1611,0.9277,0.3564,0.835,0.5054
2.2632,1.4038,0.3906,0.1636,0.1147,0.1758,0.9521,0.3638,0.8521,0.5322
2.3657,1.4307,0.3955,0.166,0.1123,0.1807,0.9229,0.3638,0.8203,0.5396
2.2729,1.394,0.3833,0.1563,0.1025,0.1709,0.8716,0.3564,0.7715,0.5029
2.0898,1.3257,0.3613,0.1514,0.0928,0.1587,0.8105,0.3418,0.7227,0.4736
2.0923,1.3013,0.3613,0.1465,0.0854,0.1538,0.791,0.3369,0.7593,0.4712
2.5317,1.3965,0.3809,0.1514,0.0903,0.1514,0.7422,0.3442,0.813,0.4785
2.7271,1.3892,0.3784,0.1538,0.0928,0.144,0.6689,0.3394,0.8032,0.4639
2.8613,1.3086,0.3564,0.1489,0.0952,0.1392,0.6445,0.354,0.769,0.4907
2.793,1.2085,0.3564,0.1709,0.1123,0.1416,0.6177,0.354,0.7031,0.4956
2.5659,1.1157,0.3687,0.1855,0.1172,0.1318,0.5591,0.332,0.6616,0.4541
2.5537,1.1572,0.4126,0.2124,0.1343,0.127,0.5493,0.3149,0.7642,0.4541
2.7954,1.3184,0.4712,0.2417,0.1514,0.1221,0.6372,0.3296,0.9302,0.5273
2.9346,1.4404,0.52,0.2612,0.166,0.1196,0.6567,0.3442,1.0034,0.5444
2.8223,1.4233,0.5103,0.2563,0.1611,0.1074,0.6152,0.3394,0.979,0.5054
2.5757,1.3672,0.4883,0.249,0.1563,0.1074,0.6348,0.332,0.9302,0.5396
2.4731,1.3574,0.4834,0.2417,0.1538,0.127,0.7202,0.3589,0.9058,0.5859
2.3584,1.3013,0.4907,0.2393,0.1465,0.1318,0.7202,0.3613,0.8447,0.5786
2.3047,1.2329,0.4834,0.2441,0.1465,0.1392,0.7129,0.3809,0.7935,0.5957
2.4268,1.1816,0.4541,0.2393,0.144,0.1514,0.7666,0.3784,0.73,0.6104
2.3218,1.0938,0.4102,0.2271,0.1367,0.1416,0.7275,0.3809,0.6543,0.564
2.1338,1.0376,0.3784,0.2075,0.127,0.127,0.6567,0.3809,0.5957,0.498
2.0923,1.0449,0.3735,0.2026,0.1245,0.1318,0.6665,0.4199,0.5933,0.4956
2.0508,1.0425,0.3809,0.2271,0.1416,0.1416,0.708,0.459,0.5688,0.5518
1.8774,0.9595,0.3613,0.2319,0.1514,0.1416,0.6885,0.4736,0.52,0.5542
1.6699,0.8911,0.3442,0.2271,0.1465,0.1416,0.6934,0.4663,0.4907,0.5566
1.7676,0.8716,0.3809,0.2197,0.1416,0.1367,0.6543,0.4883,0.4907,0.5347
1.8433,0.8472,0.3931,0.21,0.1392,0.127,0.6006,0.5469,0.4834,0.4834
1.7993,0.8398,0.3882,0.1978,0.1416,0.1343,0.6006,0.5713,0.4736,0.4932
1.7334,0.8447,0.3955,0.1904,0.1392,0.1465,0.6006,0.5591,0.4883,0.4932
1.6187,0.8398,0.3931,0.1831,0.1343,0.1367,0.5591,0.5371,0.5078,0.4663
1.5479,0.8569,0.3857,0.1758,0.1294,0.1367,0.5469,0.52,0.52,0.4468
1.4307,0.8203,0.3979,0.1758,0.1196,0.1294,0.5444,0.5127,0.4956,0.415
1.3647,0.8008,0.4077,0.1758,0.1123,0.1147,0.498,0.5835,0.4907,0.3857
1.3403,0.7935,0.4028,0.1685,0.1025,0.1074,0.5054,0.6543,0.4639,0.376
1.2793,0.7935,0.3955,0.1685,0.0977,0.0977,0.4956,0.686,0.4517,0.3662
1.2402,0.8057,0.3931,0.1733,0.1001,0.0928,0.481,0.7593,0.4492,0.376
1.2256,0.8203,0.4053,0.1831,0.1025,0.083,0.4834,0.8325,0.4492,0.4272
1.2183,0.8472,0.4639,0.2026,0.1147,0.0757,0.4639,1.0229,0.4517,0.4712
1.3184,0.8936,0.5103,0.2197,0.127,0.0732,0.4321,1.2231,0.4639,0.5078
1.4404,0.8862,0.52,0.2271,0.1343,0.0732,0.3955,1.2695,0.4639,0.5444
1.5454,0.9009,0.5176,0.2319,0.1392,0.0684,0.3687,1.2744,0.4614,0.5371
1.5796,0.918,0.5273,0.2417,0.144,0.0781,0.3564,1.2793,0.4492,0.5396
1.6089,0.9717,0.5664,0.2588,0.1538,0.0903,0.3564,1.333,0.4492,0.5151
1.5918,0.9424,0.564,0.2563,0.1489,0.0952,0.4102,1.3184,0.4419,0.5054
1.4771,0.8936,0.5469,0.2441,0.1416,0.0928,0.4272,1.2915,0.4126,0.4858
1.3599,0.8936,0.5249,0.2344,0.1343,0.0879,0.4248,1.377,0.3931,0.4614
1.3062,0.9302,0.5103,0.2295,0.1245,0.0854,0.4102,1.3989,0.3882,0.5078
1.3696,1.0547,0.5688,0.2515,0.1221,0.0806,0.3784,1.3354,0.4663,0.5493
1.3428,1.1035,0.6177,0.2759,0.1147,0.0757,0.3418,1.2817,0.6055,0.5347
1.272,1.1572,0.6323,0.2808,0.1123,0.0708,0.3223,1.2549,0.647,0.5225
1.1792,1.2207,0.6323,0.2905,0.1147,0.0708,0.3027,1.2305,0.6323,0.5225
1.0864,1.2012,0.5933,0.2905,0.1245,0.0757,0.3101,1.1914,0.5933,0.564
1.0254,1.1157,0.5444,0.2759,0.1294,0.0854,0.3491,1.189,0.5518,0.7202
1.0449,1.0303,0.5176,0.2686,0.1343,0.0903,0.3833,1.5649,0.5176,0.7764
1.0767,1.0327,0.5249,0.2612,0.1367,0.0903,0.4004,1.9434,0.4785,0.7666
1.0718,1.2305,0.5542,0.2734,0.1416,0.0879,0.4028,2.2998,0.4907,0.7983
1.0669,1.3843,0.6177,0.2832,0.1416,0.0879,0.3955,2.6147,0.5664,0.8057
1.0449,1.4648,0.6738,0.2979,0.144,0.0806,0.3687,2.7808,0.6543,0.7983
1.2231,1.5088,0.7446,0.3296,0.1538,0.0806,0.3613,2.749,0.7324,0.8545
1.3306,1.4697,0.7764,0.3442,0.1563,0.0806,0.3467,2.6514,0.7983,0.918
1.3281,1.4893,0.7544,0.3491,0.1563,0.0757,0.3369,2.6563,0.8228,0.957
1.355,1.4917,0.73,0.3394,0.1538,0.0781,0.3418,2.7637,0.8643,0.9839
1.3892,1.416,0.7031,0.3369,0.1538,0.0781,0.3345,2.915,0.8374,1.0205
1.3745,1.3916,0.7666,0.3662,0.1611,0.083,0.3271,2.9102,0.7764,1.0815
1.3452,1.3916,0.8618,0.3906,0.1733,0.0854,0.3223,3.0176,0.7227,1.1157
1.2964,1.4404,0.9253,0.4053,0.1758,0.0879,0.3345,3.0347,0.791,1.1011
1.3721,1.5918,1.0742,0.4321,0.1782,0.0879,0.3345,3.1714,0.8813,1.0645
1.3818,1.7383,1.1279,0.4321,0.1709,0.0806,0.3198,3.1372,0.8862,1.0107
1.4038,1.8652,1.1597,0.4395,0.1709,0.0781,0.3003,3.0908,0.8862,0.9277
1.5503,1.9385,1.1938,0.4517,0.1636,0.0757,0.2832,3.1055,0.8789,0.9351
1.6162,1.9775,1.2549,0.4517,0.1538,0.0732,0.2979,3.2202,0.8862,0.9888
1.7334,2.063,1.2476,0.4492,0.1563,0.0806,0.3345,3.1982,0.8862,1.0107
1.958,2.2021,1.2012,0.437,0.1636,0.0854,0.3809,3.3008,0.8887,0.9839
2.0117,2.2803,1.1621,0.4175,0.1587,0.0854,0.4126,3.1812,0.9033,0.9375
2.0557,2.3462,1.1646,0.4102,0.166,0.0952,0.4712,2.9565,1.0205,0.8813
2.0068,2.3218,1.1279,0.4126,0.1636,0.0928,0.4712,2.9443,1.0718,0.813
2.1143,2.2729,1.1133,0.4468,0.1758,0.0928,0.4639,3.0615,1.1548,0.7544
2.4292,2.334,1.1279,0.481,0.2026,0.0952,0.4565,3.1543,1.1816,0.7495
2.4756,2.3022,1.1035,0.4932,0.2148,0.1001,0.4541,3.1226,1.1304,0.8105
2.3511,2.1631,1.084,0.498,0.2295,0.1172,0.564,2.9077,1.0693,0.8081
2.4609,2.1167,1.0327,0.4785,0.2319,0.1416,0.7593,2.6929,1.0278,0.8081
2.5513,2.0288,0.9717,0.4492,0.2148,0.1465,0.8203,2.5366,0.9985,0.791
2.6196,2.0166,1.0352,0.4565,0.2148,0.1416,0.8545,2.4854,0.9668,0.7837
2.8247,1.9678,1.0278,0.4419,0.2051,0.1367,0.835,2.3779,0.9814,0.7349
2.8125,1.9165,0.979,0.4175,0.1953,0.1221,0.7715,2.168,0.9717,0.6714
2.9492,1.9775,0.9253,0.3882,0.1831,0.1147,0.7153,2.0532,0.9521,0.6006
3.1079,2.002,0.8887,0.3711,0.1733,0.105,0.6714,2.1484,0.9082,0.5347
3.0859,2.0264,0.8496,0.3467,0.1611,0.1001,0.6372,2.3486,0.8813,0.5396
2.9785,2.0239,0.8154,0.3345,0.1636,0.0952,0.6543,2.4146,0.8765,0.5566
2.7368,1.9482,0.7617,0.3174,0.1587,0.0903,0.6421,2.3828,0.8618,0.5444
2.7319,1.8481,0.73,0.3101,0.1611,0.1025,0.6299,2.2461,0.8691,0.5591
2.6929,1.7529,0.7031,0.3003,0.1587,0.1074,0.5957,2.2632,0.9009,0.5469
2.6514,1.7407,0.6909,0.3003,0.1587,0.105,0.5493,2.3218,0.9839,0.5249
2.7026,1.7456,0.6934,0.3101,0.1611,0.105,0.52,2.2192,1.0156,0.4907
2.5854,1.6528,0.6665,0.3027,0.1563,0.1001,0.498,2.2241,0.9766,0.4492
2.4878,1.5527,0.6226,0.2808,0.144,0.0928,0.4614,2.1851,0.9058,0.4077
2.373,1.4478,0.5933,0.2612,0.1318,0.0928,0.4468,2.085,0.8618,0.376
2.2803,1.3403,0.5688,0.2393,0.1196,0.0879,0.4346,2.0508,0.7959,0.3418
2.1509,1.2207,0.5542,0.2222,0.1074,0.0806,0.4077,2.0166,0.7227,0.3101
1.9995,1.123,0.5396,0.21,0.0977,0.0708,0.3735,1.9556,0.6348,0.2783
1.8042,1.0254,0.5249,0.2002,0.0879,0.061,0.332,1.7993,0.6177,0.2417
1.604,0.9473,0.5029,0.1904,0.0781,0.0562,0.3003,1.6821,0.603,0.21
1.4429,0.8569,0.4858,0.1758,0.0684,0.0488,0.271,1.6309,0.5664,0.1978
1.3037,0.769,0.5054,0.166,0.061,0.0391,0.2393,1.5479,0.5249,0.1782
1.2671,0.7202,0.5469,0.1636,0.0562,0.0342,0.2173,1.5161,0.4883,0.1636
1.2573,0.7178,0.564,0.1733,0.0635,0.0342,0.2319,1.5283,0.4639,0.1929
1.2207,0.686,0.5322,0.1709,0.0684,0.0317,0.2368,1.5259,0.4175,0.2075
1.1157,0.625,0.4712,0.1538,0.061,0.0244,0.2246,1.438,0.3662,0.2124
0.9839,0.5786,0.4175,0.1367,0.0513,0.0171,0.2026,1.3208,0.3271,0.2002
0.8813,0.5542,0.3857,0.1245,0.0439,0.0146,0.1904,1.2744,0.3516,0.1807
0.8374,0.6055,0.3516,0.1221,0.0391,0.0122,0.1807,1.228,0.3882,0.166
0.7617,0.6006,0.3418,0.1318,0.0342,0.0122,0.1636,1.1523,0.3882,0.1489
0.6836,0.5542,0.3271,0.1367,0.0293,0.0098,0.144,1.0449,0.3613,0.1294
0.625,0.5078,0.3442,0.1416,0.0269,0.0073,0.1343,1.0352,0.3247,0.1196
0.6226,0.4712,0.3394,0.1343,0.022,0.0073,0.1367,1.084,0.2979,0.1392
0.6226,0.4321,0.3223,0.1245,0.0171,0.0049,0.1294,1.0547,0.2686,0.1392
0.5811,0.3955,0.3247,0.1318,0.022,0.0049,0.1221,0.9717,0.2686,0.1318
0.52,0.3589,0.3613,0.1416,0.022,0.0024,0.105,0.8716,0.2905,0.1147
0.4663,0.3711,0.4053,0.1587,0.022,0.0024,0.0977,0.8252,0.3296,0.0977
0.415,0.3833,0.4077,0.1709,0.0171,0.0049,0.1025,0.8643,0.3613,0.0806
0.3687,0.3564,0.376,0.1685,0.0146,0.0024,0.105,0.8862,0.3589,0.0684
0.3223,0.3101,0.3247,0.1538,0.0122,0.0024,0.1074,0.835,0.3271,0.061
0.2808,0.2734,0.2881,0.1416,0.0098,0.0024,0.1025,0.752,0.2856,0.0562
0.2417,0.2393,0.249,0.127,0.0049,0.0024,0.0977,0.6714,0.2393,0.0562
0.2173,0.2051,0.2319,0.1123,0.0024,0.0024,0.1001,0.5957,0.2002,0.0537
0.1929,0.1758,0.2222,0.1001,0.0024,0.0024,0.0977,0.542,0.1978,0.0537
0.1855,0.166,0.2051,0.0879,0.0024,0.0024,0.0879,0.5518,0.2051,0.0537
0.1953,0.1587,0.1831,0.0781,0.0024,0.0024,0.0903,0.5835,0.1978,0.0488
0.188,0.144,0.1563,0.0659,0.0024,0.0024,0.0854,0.5981,0.2051,0.0415
0.1855,0.127,0.1318,0.0537,0.0024,0.0049,0.0879,0.5859,0.2295,0.0415
0.1855,0.1074,0.105,0.0391,0.0024,0.0073,0.0977,0.5396,0.2197,0.0537
0.1733,0.083,0.0781,0.0269,0.0024,0.0049,0.0928,0.4907,0.1929,0.0635
0.1514,0.0586,0.0562,0.0146,0.0024,0.0024,0.0928,0.4468,0.1611,0.0732
0.1245,0.0366,0.0342,0.0049,0.0024,0.0024,0.083,0.3882,0.1294,0.0708
0.1001,0.0171,0.0171,0.0024,0.0024,0.0024,0.0732,0.3369,0.0977,0.0781
0.0854,0.0024,0.0098,0.0024,0.0024,0.0024,0.0708,0.3076,0.0732,0.0928
0.0757,0.0024,0.0024,0.0024,0.0049,0.0024,0.0635,0.3149,0.0537,0.0952
0.0781,0.0024,0.0024,0.0049,0.0024,0.0024,0.0586,0.3711,0.0342,0.0928
0.0757,0.0024,0.0024,0.0024,0.0024,0.0024,0.0659,0.3809,0.0195,0.0903
0.0708,0.0024,0.0024,0.0024,0.0024,0.0024,0.0635,0.3735,0.0122,0.0806
0.0659,0.0024,0.0098,0.0024,0.0024,0.0024,0.061,0.3857,0.0464,0.0659
0.061,0.0024,0.0195,0.0024,0.0024,0.0024,0.0659,0.3955,0.061,0.0586
0.0732,0.0024,0.0366,0.0024,0.0024,0.0024,0.0635,0.4077,0.061,0.0488
0.0732,0.0024,0.0391,0.0024,0.0024,0.0024,0.0562,0.3857,0.0537,0.0366
0.0732,0.0024,0.0317,0.0024,0.0024,0.0024,0.0488,0.3467,0.0415,0.0317
0.0684,0.0024,0.022,0.0024,0.0024,0.0024,0.0488,0.3101,0.0293,0.0537
0.0659,0.0024,0.0122,0.0024,0.0024,0.0024,0.0537,0.2881,0.0171,0.0757
0.0684,0.0024,0.0024,0.0024,0.0024,0.0024,0.0537,0.293,0.0049,0.0854
0.0708,0.0024,0.0024,0.0024,0.0024,0.0024,0.0684,0.3076,0.0024,0.083
0.0757,0.0024,0.0024,0.0024,0.0024,0.0024,0.0781,0.3174,0.0024,0.0757
0.0757,0.0024,0.0024,0.0024,0.0024,0.0024,0.0781,0.3149,0.0024,0.0708
0.0781,0.0024,0.0024,0.0024,0.0024,0.0024,0.0732,0.3003,0.0024,0.061
0.0757,0.0024,0.0024,0.0024,0.0024,0.0024,0.0635,0.2734,0.0024,0.0464
0.0659,0.0024,0.0024,0.0024,0.0024,0.0024,0.0464,0.2417,0.0024,0.0342
0.0586,0.0024,0.0024,0.0024,0.0024,0.0024,0.0439,0.2466,0.0024,0.0464
0.0537,0.0024,0.0024,0.0024,0.0024,0.0024,0.0488,0.249,0.0024,0.0635
0.0488,0.0024,0.0024,0.0024,0.0024,0.0024,0.0537,0.2563,0.0024,0.0659
0.0537,0.0024,0.0024,0.0024,0.0024,0.0024,0.0684,0.2832,0.0024,0.0635
0.0488,0.0024,0.0024,0.0024,0.0024,0.0024,0.0659,0.2808,0.0024,0.0537
0.0391,0.0024,0.0024,0.0024,0.0024,0.0024,0.0635,0.2612,0.0024,0.0513
0.0342,0.0024,0.0024,0.0024,0.0024,0.0024,0.0977,0.2515,0.0024,0.0903
0.0342,0.0024,0.0024,0.0024,0.0024,0.0024,0.1733,0.2734,0.0024,0.1489
0.0342,0.0024,0.0024,0.0024,0.0024,0.0024,0.2026,0.2734,0.0024,0.1733
0.0293,0.0024,0.0024,0.0024,0.0024,0.0024,0.2148,0.2563,0.0024,0.1733
0.022,0.0024,0.0024,0.0024,0.0024,0.0024,0.2026,0.2344,0.0024,0.1538
0.0195,0.0024,0.0024,0.0024,0.0024,0.0024,0.1782,0.2075,0.0024,0.1294
0.0171,0.0024,0.0024,0.0024,0.0024,0.0024,0.166,0.2051,0.0024,0.1074
0.0195,0.0024,0.0024,0.0024,0.0024,0.0024,0.2026,0.2197,0.0024,0.1099
0.0171,0.0024,0.0024,0.0024,0.0024,0.0024,0.2271,0.2246,0.0024,0.1074
0.0171,0.0024,0.0024,0.0024,0.0024,0.0024,0.2344,0.2368,0.0024,0.1147
0.0195,0.0024,0.0024,0.0024,0.0024,0.0024,0.2515,0.2515,0.0024,0.144
0.022,0.0024,0.0024,0.0024,0.0024,0.0024,0.3467,0.2734,0.0024,0.2075
0.0269,0.0024,0.0024,0.0024,0.0024,0.0024,0.3931,0.2734,0.0024,0.2173
0.0244,0.0024,0.0024,0.0024,0.0024,0.0024,0.3882,0.2539,0.0024,0.1978
0.0195,0.0024,0.0024,0.0024,0.0024,0.0024,0.3564,0.2295,0.0024,0.1709
0.0171,0.0024,0.0024,0.0024,0.0024,0.0024,0.3223,0.2124,0.0024,0.1465
0.0146,0.0024,0.0024,0.0024,0.0024,0.0024,0.2905,0.1953,0.0024,0.1245
0.0098,0.0024,0.0024,0.0024,0.0024,0.0024,0.2515,0.1904,0.0024,0.1074
0.0073,0.0024,0.0024,0.0024,0.0024,0.0024,0.2271,0.1978,0.0024,0.1001
0.0024,0.0024,0.0024,0.0024,0.0024,0.0024,0.2026,0.188,0.0024,0.0854
0.0024,0.0024,0.0024,0.0024,0.0024,0.0024,0.2026,0.1733,0.0024,0.0806
0.0073,0.0024,0.0024,0.0024,0.0024,0.0024,0.3125,0.188,0.0024,0.0854
0.0098,0.0024,0.0024,0.0024,0.0024,0.0049,0.4004,0.2051,0.0024,0.0781
0.0098,0.0024,0.0024,0.0024,0.0024,0.0024,0.4224,0.2002,0.0024,0.0732
0.0049,0.0024,0.0024,0.0024,0.0024,0.0024,0.3979,0.1904,0.0024,0.061
0.0049,0.0024,0.0024,0.0024,0.0024,0.0024,0.3613,0.1733,0.0024,0.0513
0.0073,0.0024,0.0049,0.0024,0.0024,0.0024,0.3149,0.1636,0.0024,0.0415
0.0049,0.0024,0.0024,0.0024,0.0024,0.0024,0.2637,0.1636,0.0024,0.0317
0.0073,0.0024,0.0024,0.0024,0.0024,0.0024,0.2197,0.1758,0.0024,0.0269
0.0049,0.0024,0.0049,0.0024,0.0024,0.0024,0.1929,0.1758,0.0024,0.022
0.0024,0.0024,0.0024,0.0024,0.0024,0.0024,0.2002,0.166,0.0024,0.0171
0.0024,0.0024,0.0024,0.0024,0.0024,0.0024,0.1953,0.1489,0.0024,0.0122
0.0024,0.0024,0.0024,0.0024,0.0024,0.0024,0.2563,0.1489,0.0024,0.0171
0.0122,0.0024,0.0024,0.0024,0.0024,0.0024,0.3271,0.1685,0.0024,0.0317
0.0293,0.0024,0.0024,0.0024,0.0024,0.0024,0.4248,0.1953,0.0024,0.0708
0.0342,0.0024,0.0024,0.0024,0.0024,0.0024,0.4614,0.1978,0.0024,0.0928
0.0293,0.0024,0.0024,0.0024,0.0024,0.0024,0.4419,0.1831,0.0024,0.0928
0.0244,0.0024,0.0024,0.0024,0.0024,0.0024,0.4639,0.1782,0.0024,0.0903
0.0269,0.0024,0.0024,0.0024,0.0024,0.0024,0.4932,0.188,0.0024,0.0952
0.0366,0.0024,0.0024,0.0024,0.0024,0.0024,0.5347,0.2075,0.0024,0.1074
0.0391,0.0024,0.0024,0.0024,0.0024,0.0024,0.5542,0.2124,0.0024,0.1099
0.0342,0.0024,0.0024,0.0024,0.0024,0.0024,0.5225,0.2002,0.0024,0.1147
0.0317,0.0024,0.0024,0.0024,0.0024,0.0024,0.4785,0.1929,0.0024,0.1172
0.0317,0.0024,0.0024,0.0024,0.0024,0.0024,0.4297,0.1904,0.0024,0.1147
0.0513,0.0024,0.0024,0.0024,0.0024,0.0073,0.5737,0.2515,0.0024,0.1147
0.0732,0.0024,0.0024,0.0024,0.0024,0.0146,0.7886,0.3052,0.0024,0.1074
0.0757,0.0073,0.0024,0.0024,0.0024,0.0146,0.8496,0.3149,0.0024,0.0977
0.0708,0.0317,0.0342,0.0244,0.0024,0.0122,0.8203,0.3223,0.0024,0.0952
0.0586,0.0366,0.0635,0.0488,0.0024,0.0073,0.7349,0.3052,0.0024,0.0854
0.0562,0.0342,0.0732,0.061,0.0049,0.0049,0.6909,0.3101,0.0024,0.0854
0.0928,0.0391,0.0757,0.0684,0.0073,0.0195,0.9058,0.3931,0.0024,0.1099
0.1074,0.0366,0.0684,0.0635,0.0098,0.0269,0.9692,0.4126,0.0024,0.1172
0.1074,0.0269,0.0513,0.0537,0.0073,0.0244,0.9253,0.3906,0.0024,0.1074
0.0903,0.0146,0.0366,0.0415,0.0024,0.0195,0.8203,0.3516,0.0024,0.0928
0.0757,0.0024,0.022,0.0293,0.0024,0.0146,0.7007,0.3052,0.0024,0.083
0.0586,0.0024,0.0073,0.0146,0.0024,0.0073,0.5957,0.2686,0.0024,0.1025
0.0513,0.0024,0.0024,0.0049,0.0024,0.0049,0.6616,0.2759,0.0024,0.1318
0.0537,0.0024,0.0024,0.0024,0.0024,0.0073,0.7202,0.2905,0.0024,0.1636
0.0537,0.0098,0.0024,0.0024,0.0024,0.0024,0.7324,0.3174,0.0024,0.1855
0.0464,0.0195,0.0024,0.0024,0.0024,0.0024,0.7056,0.3271,0.0024,0.1782
0.0391,0.0146,0.0024,0.0024,0.0024,0.0024,0.6323,0.3076,0.0024,0.1538
0.0269,0.0073,0.0024,0.0024,0.0024,0.0024,0.5518,0.2832,0.0024,0.1294
0.0195,0.0024,0.0024,0.0024,0.0024,0.0024,0.5054,0.2588,0.0024,0.1099
0.0195,0.0024,0.0049,0.0024,0.0024,0.0024,0.4688,0.2393,0.0024,0.1245
0.0195,0.0024,0.0024,0.0024,0.0024,0.0024,0.4834,0.2441,0.0024,0.188
0.0171,0.0024,0.0024,0.0024,0.0024,0.0024,0.4614,0.2319,0.0024,0.2002
0.0098,0.0024,0.0024,0.0024,0.0024,0.0024,0.4102,0.2051,0.0024,0.1831
0.0073,0.0024,0.0024,0.0024,0.0024,0.0024,0.3564,0.1807,0.0024,0.1563
0.0073,0.0024,0.0024,0.0024,0.0024,0.0024,0.3271,0.1733,0.0024,0.127
0.0073,0.0024,0.0024,0.0024,0.0024,0.0024,0.3052,0.1611,0.0024,0.1025
0.0146,0.0024,0.0024,0.0024,0.0024,0.0024,0.271,0.1636,0.0024,0.0757
0.0195,0.0024,0.0024,0.0024,0.0024,0.0024,0.2319,0.1563,0.0024,0.0586
0.0171,0.0024,0.0024,0.0024,0.0024,0.0024,0.1929,0.1416,0.0024,0.0439
0.0146,0.0024,0.0024,0.0024,0.0024,0.0024,0.1636,0.1245,0.0024,0.0391
0.0073,0.0024,0.0024,0.0024,0.0049,0.0024,0.1367,0.1074,0.0024,0.0366
0.0024,0.0024,0.0024,0.0024,0.0024,0.0024,0.1196,0.0903,0.0024,0.0317
0.0122,0.0024,0.0024,0.0024,0.0024,0.0024,0.1392,0.1123,0.0024,0.0317
0.0269,0.0024,0.0024,0.0024,0.0024,0.0024,0.188,0.1343,0.0024,0.0464
0.0366,0.0024,0.0024,0.0024,0.0024,0.0024,0.2051,0.1465,0.0024,0.0488
0.0342,0.0024,0.0024,0.0024,0.0024,0.0024,0.2051,0.144,0.0024,0.0488
0.0293,0.0024,0.0024,0.0024,0.0024,0.0024,0.188,0.1343,0.0024,0.0415
0.0293,0.0024,0.0049,0.0024,0.0024,0.0024,0.1709,0.1392,0.0024,0.0342
0.0391,0.0024,0.0024,0.0024,0.0024,0.0024,0.1538,0.1514,0.0024,0.0293
0.0439,0.0024,0.0024,0.0024,0.0024,0.0024,0.1367,0.1465,0.0024,0.0269
0.0366,0.0024,0.0024,0.0024,0.0024,0.0024,0.1123,0.1318,0.0024,0.0195
0.0293,0.0024,0.0024,0.0024,0.0024,0.0024,0.0854,0.1123,0.0024,0.0122
0.022,0.0024,0.0024,0.0024,0.0024,0.0024,0.0732,0.1099,0.0024,0.0098
0.0122,0.0024,0.0024,0.0024,0.0024,0.0024,0.0708,0.105,0.0024,0.0049
0.0049,0.0024,0.0024,0.0024,0.0024,0.0024,0.0757,0.1172,0.0024,0.0073
0.0098,0.0024,0.0024,0.0024,0.0024,0.0024,0.0757,0.1343,0.0024,0.0146
0.0073,0.0024,0.0024,0.0024,0.0024,0.0024,0.0757,0.1392,0.0024,0.022
0.0049,0.0024,0.0024,0.0024,0.0024,0.0024,0.0854,0.1367,0.0024,0.0293
0.0024,0.0024,0.0024,0.0024,0.0024,0.0024,0.0806,0.1294,0.0024,0.0342
0.0024,0.0024,0.0024,0.0024,0.0024,0.0024,0.0708,0.1147,0.0024,0.0293
0.0024,0.0024,0.0024,0.0024,0.0024,0.0024,0.0562,0.1001,0.0024,0.0244
0.0024,0.0024,0.0024,0.0024,0.0024,0.0024,0.0635,0.0854,0.0024,0.0171
0.0024,0.0024,0.0024,0.0024,0.0024,0.0024,0.0854,0.0903,0.0024,0.0073
0.0049,0.0024,0.0024,0.0024,0.0024,0.0024,0.1196,0.1147,0.0024,0.0073
0.0098,0.0024,0.0049,0.0024,0.0024,0.0024,0.1758,0.1221,0.0024,0.0098
0.0098,0.0024,0.0024,0.0024,0.0024,0.0024,0.1904,0.1196,0.0024,0.0098
0.0024,0.0024,0.0024,0.0024,0.0024,0.0024,0.1758,0.1074,0.0024,0.0098
0.0024,0.0024,0.0024,0.0024,0.0024,0.0024,0.1636,0.0977,0.0024,0.0049
0.0024,0.0024,0.0024,0.0024,0.0024,0.0024,0.144,0.0903,0.0024,0.0024
0.0024,0.0024,0.0024,0.0024,0.0024,0.0024,0.1196,0.083,0.0024,0.0024
0.0024,0.0024,0.0024,0.0024,0.0049,0.0024,0.0952,0.0757,0.0024,0.0024
0.0146,0.0024,0.0024,0.0024,0.0024,0.0024,0.0806,0.0928,0.0024,0.0024
0.0195,0.0024,0.0024,0.0024,0.0024,0.0024,0.0806,0.1001,0.0024,0.0024
0.0171,0.0024,0.0024,0.0024,0.0024,0.0024,0.0757,0.0977,0.0024,0.0098
0.0122,0.0024,0.0049,0.0024,0.0024,0.0024,0.0757,0.0903,0.0024,0.0122
0.0049,0.0024,0.0024,0.0024,0.0024,0.0024,0.0684,0.0781,0.0024,0.0098
0.0024,0.0024,0.0024,0.0024,0.0024,0.0024,0.0537,0.0684,0.0024,0.0024
0.0024,0.0024,0.0024,0.0024,0.0024,0.0024,0.0415,0.0562,0.0024,0.0024
0.0024,0.0024,0.0024,0.0024,0.0024,0.0024,0.0464,0.0562,0.0024,0.0024
0.0024,0.0024,0.0024,0.0024,0.0024,0.0024,0.0806,0.0635,0.0024,0.0024
0.0024,0.0024,0.0024,0.0024,0.0024,0.0024,0.1074,0.0708,0.0024,0.0024
0.0024,0.0024,0.0024,0.0024,0.0024,0.0024,0.1074,0.0732,0.0024,0.0024
0.0024,0.0024,0.0024,0.0024,0.0024,0.0024,0.1001,0.0757,0.0024,0.0024
0.0024,0.0024,0.0024,0.0024,0.0024,0.0024,0.083,0.0757,0.0024,0.0024
0.0024,0.0024,0.0024,0.0024,0.0024,0.0024,0.0684,0.0732,0.0024,0.0024
0.0024,0.0024,0.0024,0.0024,0.0024,0.0024,0.0537,0.0659,0.0024,0.0049
0.0024,0.0024,0.0024,0.0024,0.0024,0.0024,0.0562,0.0635,0.0024,0.0024
0.0024,0.0024,0.0024,0.0024,0.0024,0.0024,0.0708,0.0635,0.0024,0.0098
0.0024,0.0024,0.0024,0.0024,0.0024,0.0024,0.0806,0.0684,0.0024,0.0122
0.0024,0.0024,0.0049,0.0024,0.0024,0.0024,0.0806,0.0732,0.0024,0.0122
0.0024,0.0024,0.0024,0.0024,0.0024,0.0024,0.0757,0.0757,0.0024,0.0098
0.0024,0.0024,0.0024,0.0024,0.0024,0.0024,0.0781,0.0757,0.0024,0.0049
0.0024,0.0024,0.0024,0.0024,0.0024,0.0024,0.083,0.0781,0.0024,0.0024
0.0024,0.0024,0.0024,0.0024,0.0024,0.0024,0.1025,0.0806,0.0024,0.0049
0.0024,0.0024,0.0024,0.0024,0.0024,0.0024,0.1245,0.0903,0.0024,0.0073
0.0024,0.0024,0.0024,0.0024,0.0024,0.0024,0.1221,0.0879,0.0024,0.0073
0.0024,0.0024,0.0024,0.0024,0.0024,0.0024,0.1147,0.0928,0.0024,0.0024
0.0024,0.0024,0.0024,0.0024,0.0024,0.0024,0.1001,0.0879,0.0024,0.0024
0.0024,0.0024,0.0024,0.0024,0.0049,0.0024,0.0928,0.0806,0.0024,0.0024
0.0024,0.0024,0.0024,0.0024,0.0024,0.0024,0.0977,0.0757,0.0024,0.0024
0.0024,0.0024,0.0049,0.0024,0.0024,0.0024,0.1001,0.0732,0.0024,0.0024
0.0024,0.0024,0.0024,0.0024,0.0024,0.0024,0.0977,0.0757,0.0024,0.0024
0.0024,0.0024,0.0024,0.0024,0.0024,0.0024,0.0854,0.0781,0.0024,0.0024
0.0024,0.0024,0.0024,0.0024,0.0024,0.0024,0.0708,0.0732,0.0024,0.0024
0.0098,0.0024,0.0024,0.0024,0.0024,0.0024,0.0684,0.0659,0.0024,0.0024
0.0098,0.0024,0.0024,0.0024,0.0024,0.0049,0.0659,0.061,0.0024,0.0024
0.0098,0.0024,0.0024,0.0024,0.0024,0.0024,0.0659,0.0586,0.0024,0.0024
0.0073,0.0024,0.0024,0.0024,0.0024,0.0024,0.0586,0.0586,0.0024,0.0024
0.0049,0.0024,0.0024,0.0024,0.0024,0.0024,0.0513,0.061,0.0024,0.0024
0.0024,0.0024,0.0024,0.0024,0.0024,0.0024,0.0415,0.0635,0.0024,0.0024
0.0024,0.0024,0.0024,0.0024,0.0024,0.0024,0.0342,0.0635,0.0024,0.0024
0.0024,0.0024,0.0024,0.0024,0.0024,0.0024,0.0464,0.0659,0.0024,0.0024
0.0024,0.0024,0.0024,0.0024,0.0024,0.0024,0.061,0.0659,0.0024,0.0024
0.0049,0.0024,0.0024,0.0024,0.0024,0.0024,0.0684,0.0757,0.0024,0.0024
0.0024,0.0024,0.0024,0.0024,0.0024,0.0024,0.0659,0.0732,0.0024,0.0024
0.0024,0.0024,0.0024,0.0024,0.0024,0.0024,0.0537,0.0757,0.0024,0.0024
0.0024,0.0024,0.0024,0.0024,0.0024,0.0024,0.0488,0.0806,0.0024,0.0049
0.0024,0.0024,0.0024,0.0024,0.0024,0.0024,0.0537,0.0879,0.0024,0.0073
0.0024,0.0024,0.0024,0.0024,0.0024,0.0024,0.0586,0.0879,0.0024,0.0073
0.0024,0.0024,0.0024,0.0024,0.0024,0.0024,0.0537,0.083,0.0024,0.0049
0.0024,0.0024,0.0024,0.0024,0.0024,0.0024,0.0586,0.0806,0.0024,0.0024
0.0122,0.0024,0.0024,0.0024,0.0024,0.0024,0.0903,0.1074,0.0024,0.0024
0.0146,0.0024,0.0024,0.0024,0.0024,0.0024,0.1563,0.1294,0.0024,0.0024
0.0122,0.0024,0.0024,0.0024,0.0024,0.0024,0.1758,0.1294,0.0024,0.0024
0.0073,0.0024,0.0024,0.0024,0.0024,0.0024,0.1709,0.1245,0.0024,0.0024
0.0049,0.0024,0.0024,0.0024,0.0024,0.0024,0.1489,0.1123,0.0024,0.0024
0.0024,0.0024,0.0024,0.0024,0.0024,0.0024,0.1318,0.105,0.0024,0.0024
0.0024,0.0024,0.0024,0.0024,0.0024,0.0024,0.1172,0.1025,0.0024,0.0024
0.0024,0.0024,0.0024,0.0024,0.0024,0.0024,0.0977,0.1001,0.0024,0.0024
0.0024,0.0024,0.0024,0.0024,0.0024,0.0024,0.0781,0.0952,0.0024,0.0024
0.0024,0.0024,0.0024,0.0024,0.0024,0.0024,0.061,0.083,0.0024,0.0024
0.0024,0.0024,0.0024,0.0024,0.0024,0.0024,0.0586,0.0757,0.0024,0.0024
0.0024,0.0049,0.0024,0.0024,0.0024,0.0024,0.0708,0.0879,0.0024,0.0024
0.0098,0.0024,0.0024,0.0024,0.0024,0.0024,0.0757,0.1025,0.0024,0.0024
0.0098,0.0024,0.0024,0.0024,0.0024,0.0024,0.0708,0.105,0.0024,0.0024
0.0073,0.0024,0.0024,0.0024,0.0024,0.0024,0.0635,0.0977,0.0024,0.0024
0.0024,0.0024,0.0024,0.0024,0.0024,0.0024,0.0562,0.0952,0.0024,0.0024
0.0049,0.0024,0.0024,0.0024,0.0024,0.0024,0.0562,0.0952,0.0024,0.0024
0.0049,0.0024,0.0024,0.0024,0.0024,0.0024,0.0757,0.1025,0.0024,0.0024
0.0049,0.0024,0.0024,0.0024,0.0024,0.0024,0.0854,0.1001,0.0024,0.0024
0.0024,0.0024,0.0024,0.0024,0.0024,0.0024,0.0854,0.0903,0.0024,0.0024
0.0024,0.0024,0.0024,0.0024,0.0024,0.0024,0.0757,0.0757,0.0024,0.0024
0.0024,0.0024,0.0024,0.0024,0.0024,0.0024,0.0659,0.0659,0.0024,0.0024
0.0024,0.0024,0.0024,0.0024,0.0024,0.0024,0.0537,0.061,0.0024,0.0024
0.0024,0.0024,0.0024,0.0024,0.0024,0.0024,0.0488,0.0757,0.0024,0.0024
0.0098,0.0024,0.0024,0.0024,0.0024,0.0024,0.0659,0.1025,0.0024,0.0024
0.0122,0.0024,0.0024,0.0024,0.0024,0.0024,0.061,0.1099,0.0024,0.0024
0.0073,0.0024,0.0024,0.0024,0.0024,0.0024,0.0635,0.1074,0.0024,0.0024
0.0024,0.0024,0.0024,0.0024,0.0024,0.0024,0.0562,0.0977,0.0024,0.0024
0.0024,0.0024,0.0049,0.0024,0.0024,0.0024,0.0488,0.0879,0.0024,0.0024
0.0024,0.0024,0.0024,0.0024,0.0024,0.0024,0.0391,0.0854,0.0024,0.0024
0.0024,0.0024,0.0024,0.0024,0.0024,0.0024,0.0317,0.0903,0.0024,0.0024
0.0024,0.0024,0.0024,0.0024,0.0024,0.0024,0.0244,0.0903,0.0024,0.0024
0.0024,0.0024,0.0024,0.0024,0.0024,0.0024,0.0244,0.0854,0.0024,0.0024
0.0024,0.0024,0.0024,0.0024,0.0024,0.0024,0.0391,0.0879,0.0024,0.0024
0.0024,0.0024,0.0024,0.0024,0.0024,0.0024,0.0415,0.0854,0.0024,0.0024
0.0024,0.0024,0.0024,0.0024,0.0024,0.0024,0.0391,0.0806,0.0024,0.0024
0.0024,0.0024,0.0024,0.0024,0.0024,0.0024,0.0317,0.0757,0.0024,0.0024
0.0024,0.0024,0.0024,0.0024,0.0024,0.0024,0.0244,0.0757,0.0024,0.0024
0.0024,0.0024,0.0024,0.0024,0.0024,0.0024,0.0244,0.0806,0.0024,0.0024
0.0024,0.0024,0.0024,0.0024,0.0024,0.0024,0.022,0.083,0.0024,0.0024
0.0024,0.0024,0.0024,0.0024,0.0024,0.0024,0.0317,0.0854,0.0024,0.0024
0.0024,0.0024,0.0024,0.0024,0.0024,0.0024,0.0439,0.0879,0.0024,0.0024
0.0024,0.0024,0.0024,0.0024,0.0024,0.0024,0.0513,0.0879,0.0024,0.0024
0.0024,0.0024,0.0024,0.0024,0.0024,0.0024,0.0488,0.0879,0.0024,0.0024
0.0024,0.0024,0.0024,0.0024,0.0024,0.0024,0.0391,0.083,0.0024,0.0024
0.0024,0.0024,0.0024,0.0024,0.0024,0.0024,0.0317,0.0781,0.0024,0.0024
0.0024,0.0024,0.0024,0.0024,0.0024,0.0024,0.022,0.0708,0.0024,0.0024
0.0024,0.0024,0.0024,0.0024,0.0024,0.0024,0.0269,0.0684,0.0024,0.0024
0.0024,0.0024,0.0024,0.0024,0.0024,0.0024,0.0366,0.0708,0.0024,0.0024
0.0024,0.0024,0.0024,0.0024,0.0049,0.0024,0.0537,0.0659,0.0024,0.0024
0.0024,0.0024,0.0024,0.0024,0.0024,0.0024,0.0757,0.0732,0.0024,0.0024
0.0024,0.0024,0.0024,0.0024,0.0024,0.0024,0.0781,0.0732,0.0024,0.0024
0.0073,0.0024,0.0024,0.0024,0.0024,0.0024,0.0708,0.0757,0.0024,0.0024
0.0049,0.0024,0.0024,0.0024,0.0024,0.0024,0.0635,0.0781,0.0024,0.0024
0.0024,0.0024,0.0024,0.0024,0.0024,0.0024,0.0732,0.0757,0.0024,0.0024
0.0024,0.0024,0.0024,0.0024,0.0024,0.0024,0.0757,0.0806,0.0024,0.0024
0.0024,0.0024,0.0024,0.0024,0.0024,0.0024,0.0757,0.083,0.0024,0.0024
0.0024,0.0024,0.0024,0.0024,0.0024,0.0024,0.0732,0.083,0.0024,0.0024
0.0049,0.0024,0.0024,0.0024,0.0024,0.0024,0.0635,0.0757,0.0024,0.0024
0.0049,0.0024,0.0024,0.0024,0.0024,0.0024,0.0562,0.0708,0.0024,0.0024
0.0024,0.0024,0.0024,0.0024,0.0024,0.0024,0.0562,0.061,0.0024,0.0024
0.0024,0.0024,0.0024,0.0024,0.0024,0.0024,0.0513,0.0562,0.0024,0.0024
0.0024,0.0024,0.0024,0.0024,0.0024,0.0024,0.0513,0.061,0.0024,0.0024
0.0024,0.0024,0.0024,0.0024,0.0024,0.0024,0.0684,0.0781,0.0024,0.0024
0.0024,0.0024,0.0024,0.0024,0.0024,0.0024,0.0806,0.0854,0.0024,0.0024
0.0024,0.0024,0.0024,0.0024,0.0024,0.0024,0.0781,0.0879,0.0024,0.0024
0.0024,0.0024,0.0024,0.0024,0.0024,0.0024,0.0732,0.0854,0.0024,0.0024
0.0024,0.0024,0.0024,0.0024,0.0024,0.0024,0.061,0.0854,0.0024,0.0024
0.0024,0.0024,0.0024,0.0024,0.0024,0.0024,0.0488,0.0781,0.0024,0.0024
0.0024,0.0024,0.0024,0.0024,0.0024,0.0024,0.0415,0.0684,0.0024,0.0024
0.0024,0.0024,0.0024,0.0024,0.0024,0.0024,0.0464,0.0684,0.0024,0.0049
0.0024,0.0024,0.0024,0.0024,0.0024,0.0024,0.0439,0.0708,0.0024,0.0073
0.0024,0.0024,0.0024,0.0024,0.0024,0.0024,0.0415,0.0757,0.0024,0.0098
0.0024,0.0024,0.0024,0.0024,0.0024,0.0024,0.0366,0.083,0.0024,0.0073
0.0024,0.0024,0.0024,0.0024,0.0024,0.0024,0.0317,0.0854,0.0024,0.0024
0.0024,0.0024,0.0024,0.0024,0.0024,0.0024,0.0244,0.0757,0.0024,0.0024
0.0024,0.0024,0.0024,0.0024,0.0049,0.0024,0.0146,0.0684,0.0024,0.0024
0.0024,0.0024,0.0024,0.0024,0.0024,0.0024,0.0049,0.0635,0.0024,0.0024
0.0024,0.0024,0.0024,0.0024,0.0024,0.0024,0.0024,0.0586,0.0024,0.0024
0.0024,0.0024,0.0024,0.0024,0.0024,0.0024,0.0073,0.0708,0.0024,0.0024
0.0024,0.0024,0.0024,0.0024,0.0024,0.0024,0.0073,0.0732,0.0024,0.0024
0.0024,0.0024,0.0024,0.0024,0.0024,0.0024,0.0049,0.0684,0.0024,0.0024
0.0024,0.0024,0.0024,0.0024,0.0024,0.0024,0.0024,0.0586,0.0024,0.0024
0.0024,0.0024,0.0024,0.0024,0.0024,0.0024,0.0024,0.0488,0.0024,0.0024
0.0024,0.0024,0.0024,0.0024,0.0024,0.0024,0.0024,0.0464,0.0024,0.0024
0.0024,0.0024,0.0049,0.0024,0.0024,0.0024,0.0073,0.0586,0.0024,0.0024
0.0024,0.0024,0.0024,0.0024,0.0024,0.0024,0.0342,0.0757,0.0024,0.0024
0.0024,0.0024,0.0024,0.0024,0.0024,0.0024,0.0391,0.0806,0.0024,0.0024
0.0024,0.0024,0.0024,0.0024,0.0024,0.0024,0.0391,0.0781,0.0024,0.0024
0.0024,0.0024,0.0024,0.0024,0.0024,0.0024,0.0342,0.0757,0.0024,0.0024
0.0024,0.0024,0.0024,0.0024,0.0024,0.0024,0.0244,0.0757,0.0024,0.0024
0.0024,0.0024,0.0024,0.0024,0.0024,0.0024,0.022,0.0806,0.0024,0.0024
0.0024,0.0024,0.0024,0.0024,0.0024,0.0024,0.0171,0.0781,0.0024,0.0024
0.0024,0.0024,0.0024,0.0024,0.0024,0.0024,0.0098,0.0708,0.0024,0.0024
0.0024,0.0024,0.0024,0.0024,0.0024,0.0024,0.0049,0.0635,0.0024,0.0024
0.0024,0.0024,0.0024,0.0024,0.0024,0.0024,0.0146,0.0635,0.0024,0.0024
0.0024,0.0024,0.0024,0.0024,0.0024,0.0024,0.0195,0.0635,0.0024,0.0024
0.0024,0.0024,0.0024,0.0024,0.0024,0.0024,0.0171,0.0635,0.0024,0.0024
0.0049,0.0024,0.0024,0.0024,0.0024,0.0024,0.022,0.0708,0.0024,0.0024
0.0049,0.0024,0.0024,0.0049,0.0024,0.0024,0.022,0.0757,0.0024,0.0024
0.0024,0.0024,0.0024,0.0024,0.0024,0.0024,0.0171,0.0708,0.0024,0.0024
0.0024,0.0024,0.0024,0.0024,0.0024,0.0024,0.0146,0.0635,0.0024,0.0024
0.0024,0.0024,0.0024,0.0024,0.0024,0.0024,0.0073,0.0562,0.0024,0.0024
0.0024,0.0024,0.0049,0.0024,0.0024,0.0024,0.0049,0.0562,0.0024,0.0024
0.0024,0.0024,0.0024,0.0024,0.0024,0.0024,0.0073,0.061,0.0024,0.0024
0.0024,0.0024,0.0024,0.0024,0.0024,0.0024,0.0171,0.0708,0.0024,0.0049
0.0024,0.0024,0.0024,0.0024,0.0024,0.0024,0.0293,0.0732,0.0024,0.0073
0.0024,0.0024,0.0024,0.0024,0.0024,0.0024,0.0366,0.0684,0.0024,0.0049
0.0024,0.0024,0.0024,0.0024,0.0024,0.0024,0.0391,0.0635,0.0024,0.0024
0.0024,0.0024,0.0024,0.0024,0.0024,0.0024,0.0342,0.0562,0.0024,0.0024
0.0024,0.0024,0.0024,0.0024,0.0049,0.0024,0.0269,0.0513,0.0024,0.0024
0.0024,0.0024,0.0024,0.0024,0.0024,0.0024,0.022,0.0464,0.0024,0.0024
0.0024,0.0024,0.0024,0.0024,0.0024,0.0024,0.022,0.0439,0.0024,0.0024
0.0024,0.0024,0.0024,0.0024,0.0024,0.0024,0.022,0.0391,0.0024,0.0024
0.0024,0.0024,0.0024,0.0024,0.0024,0.0024,0.0342,0.0391,0.0024,0.0024
0.0024,0.0024,0.0024,0.0024,0.0024,0.0024,0.0342,0.0391,0.0024,0.0024
0.0024,0.0024,0.0024,0.0024,0.0024,0.0024,0.0317,0.0439,0.0024,0.0024
0.0024,0.0024,0.0024,0.0024,0.0024,0.0024,0.0317,0.0537,0.0024,0.0024
0.0049,0.0024,0.0024,0.0024,0.0024,0.0024,0.0293,0.0586,0.0024,0.0024
0.0073,0.0024,0.0024,0.0024,0.0024,0.0024,0.0244,0.0684,0.0024,0.0024
0.0049,0.0024,0.0024,0.0024,0.0024,0.0024,0.022,0.0708,0.0024,0.0024
0.0024,0.0024,0.0024,0.0024,0.0024,0.0024,0.0146,0.0659,0.0024,0.0024
0.0024,0.0024,0.0024,0.0024,0.0024,0.0024,0.0073,0.0562,0.0024,0.0024
0.0024,0.0024,0.0024,0.0024,0.0024,0.0024,0.0024,0.0488,0.0024,0.0024
0.0049,0.0024,0.0024,0.0024,0.0024,0.0024,0.0024,0.0488,0.0024,0.0024
0.0049,0.0024,0.0024,0.0024,0.0024,0.0024,0.0024,0.0439,0.0024,0.0024
0.0024,0.0024,0.0024,0.0024,0.0024,0.0024,0.0024,0.0415,0.0024,0.0024
0.0024,0.0024,0.0024,0.0024,0.0024,0.0024,0.0024,0.0366,0.0024,0.0024
0.0024,0.0024,0.0024,0.0024,0.0024,0.0024,0.0024,0.0317,0.0024,0.0024
0.0024,0.0024,0.0024,0.0024,0.0024,0.0024,0.0024,0.0293,0.0024,0.0024
0.0024,0.0024,0.0024,0.0024,0.0024,0.0024,0.0049,0.0317,0.0024,0.0024
0.0024,0.0024,0.0024,0.0024,0.0024,0.0024,0.0195,0.0317,0.0024,0.0024
0.0024,0.0024,0.0024,0.0024,0.0024,0.0024,0.022,0.0342,0.0024,0.0024
0.0049,0.0024,0.0024,0.0024,0.0024,0.0024,0.0195,0.0317,0.0024,0.0024
0.0073,0.0024,0.0024,0.0024,0.0024,0.0024,0.0171,0.0366,0.0024,0.0024
0.0073,0.0024,0.0024,0.0024,0.0024,0.0024,0.0146,0.0415,0.0024,0.0024
0.0073,0.0024,0.0024,0.0024,0.0024,0.0024,0.0146,0.0464,0.0024,0.0024
0.0073,0.0024,0.0024,0.0024,0.0024,0.0024,0.022,0.0586,0.0024,0.0024
0.0073,0.0024,0.0024,0.0024,0.0024,0.0024,0.0195,0.0635,0.0024,0.0024
0.0049,0.0024,0.0024,0.0024,0.0024,0.0024,0.0146,0.061,0.0024,0.0024
0.0024,0.0024,0.0024,0.0024,0.0024,0.0024,0.0122,0.061,0.0024,0.0024
0.0024,0.0024,0.0024,0.0024,0.0024,0.0024,0.0293,0.0659,0.0024,0.0024
0.0024,0.0024,0.0024,0.0024,0.0024,0.0024,0.0342,0.0659,0.0024,0.0024
0.0024,0.0024,0.0024,0.0024,0.0024,0.0024,0.0317,0.061,0.0024,0.0024
0.0024,0.0024,0.0024,0.0024,0.0024,0.0024,0.0293,0.0659,0.0024,0.0024
0.0024,0.0024,0.0024,0.0024,0.0024,0.0024,0.0244,0.0684,0.0024,0.0024
0.0024,0.0024,0.0024,0.0024,0.0024,0.0024,0.0195,0.0659,0.0024,0.0024
0.0024,0.0024,0.0024,0.0024,0.0024,0.0024,0.0146,0.061,0.0024,0.0024
0.0024,0.0024,0.0024,0.0024,0.0024,0.0024,0.0122,0.0659,0.0024,0.0024
0.0024,0.0024,0.0024,0.0049,0.0024,0.0024,0.0098,0.0659,0.0024,0.0024
0.0049,0.0024,0.0024,0.0024,0.0024,0.0024,0.0098,0.0659,0.0024,0.0024
0.0049,0.0024,0.0024,0.0024,0.0024,0.0024,0.0073,0.0586,0.0024,0.0024
0.0049,0.0024,0.0024,0.0024,0.0024,0.0024,0.0122,0.0562,0.0024,0.0024
0.0073,0.0024,0.0024,0.0024,0.0024,0.0024,0.0269,0.0586,0.0024,0.0024
0.0049,0.0024,0.0024,0.0024,0.0024,0.0024,0.0293,0.061,0.0024,0.0024
0.0024,0.0024,0.0024,0.0024,0.0024,0.0024,0.0293,0.0586,0.0024,0.0024
0.0024,0.0024,0.0024,0.0024,0.0024,0.0024,0.0293,0.0635,0.0024,0.0024
0.0024,0.0024,0.0024,0.0024,0.0024,0.0024,0.0269,0.0659,0.0024,0.0024
0.0024,0.0024,0.0024,0.0024,0.0024,0.0024,0.022,0.061,0.0024,0.0024
0.0049,0.0024,0.0024,0.0024,0.0024,0.0024,0.0171,0.0562,0.0024,0.0024
0.0024,0.0024,0.0024,0.0024,0.0024,0.0024,0.0098,0.0513,0.0024,0.0024
0.0024,0.0024,0.0024,0.0024,0.0024,0.0024,0.0024,0.0464,0.0024,0.0024
0.0024,0.0024,0.0024,0.0024,0.0024,0.0024,0.0024,0.0488,0.0024,0.0024
0.0024,0.0024,0.0024,0.0024,0.0024,0.0024,0.0049,0.0488,0.0024,0.0024
0.0024,0.0024,0.0024,0.0024,0.0024,0.0024,0.0024,0.0439,0.0024,0.0024
0.0024,0.0024,0.0024,0.0024,0.0024,0.0024,0.0024,0.0415,0.0024,0.0024
0.0049,0.0024,0.0024,0.0024,0.0024,0.0024,0.0024,0.0415,0.0024,0.0024
0.0024,0.0024,0.0024,0.0024,0.0024,0.0024,0.0024,0.0464,0.0024,0.0024
0.0024,0.0024,0.0024,0.0024,0.0024,0.0024,0.0049,0.0586,0.0024,0.0024
0.0024,0.0024,0.0024,0.0024,0.0024,0.0024,0.0049,0.0684,0.0024,0.0024
0.0024,0.0024,0.0024,0.0024,0.0024,0.0024,0.0073,0.0659,0.0024,0.0024
0.0024,0.0024,0.0024,0.0024,0.0024,0.0024,0.0049,0.0635,0.0024,0.0024
0.0024,0.0024,0.0024,0.0024,0.0024,0.0024,0.0024,0.0586,0.0024,0.0024
0.0024,0.0024,0.0024,0.0024,0.0024,0.0024,0.0049,0.061,0.0024,0.0024
0.0049,0.0024,0.0024,0.0024,0.0024,0.0024,0.0073,0.0635,0.0024,0.0024
0.0024,0.0024,0.0024,0.0024,0.0024,0.0024,0.0073,0.0635,0.0024,0.0024
0.0024,0.0024,0.0049,0.0024,0.0024,0.0024,0.0049,0.0586,0.0024,0.0024
0.0024,0.0024,0.0024,0.0024,0.0024,0.0024,0.0024,0.0513,0.0024,0.0024
0.0024,0.0024,0.0024,0.0024,0.0024,0.0024,0.0024,0.0537,0.0024,0.0024
0.0024,0.0024,0.0024,0.0024,0.0024,0.0024,0.0024,0.0537,0.0024,0.0024
0.0024,0.0024,0.0024,0.0024,0.0024,0.0024,0.0024,0.0635,0.0024,0.0024
0.0024,0.0024,0.0024,0.0024,0.0024,0.0024,0.0024,0.0708,0.0024,0.0024
0.0024,0.0024,0.0024,0.0024,0.0024,0.0024,0.0024,0.0732,0.0024,0.0024
0.0024,0.0024,0.0024,0.0024,0.0024,0.0024,0.0049,0.0732,0.0024,0.0024
0.0024,0.0024,0.0024,0.0024,0.0024,0.0024,0.0024,0.0732,0.0024,0.0024
0.0024,0.0024,0.0024,0.0024,0.0024,0.0024,0.0024,0.0659,0.0024,0.0024
0.0024,0.0024,0.0024,0.0024,0.0024,0.0024,0.0024,0.0562,0.0024,0.0024
0.0024,0.0024,0.0024,0.0024,0.0024,0.0024,0.0049,0.0537,0.0024,0.0024
0.0024,0.0024,0.0024,0.0024,0.0024,0.0024,0.0122,0.061,0.0024,0.0024
0.0024,0.0024,0.0024,0.0024,0.0024,0.0024,0.0146,0.0708,0.0024,0.0024
0.0024,0.0024,0.0024,0.0024,0.0024,0.0024,0.0171,0.0732,0.0024,0.0024
0.0024,0.0024,0.0024,0.0024,0.0024,0.0024,0.0146,0.0757,0.0024,0.0024
0.0024,0.0024,0.0024,0.0024,0.0024,0.0024,0.0122,0.0732,0.0024,0.0024
0.0024,0.0024,0.0024,0.0024,0.0024,0.0024,0.0098,0.0635,0.0024,0.0024
0.0049,0.0024,0.0024,0.0024,0.0024,0.0024,0.0073,0.0635,0.0024,0.0024
0.0024,0.0024,0.0024,0.0024,0.0024,0.0024,0.0073,0.0586,0.0024,0.0024
0.0024,0.0024,0.0024,0.0024,0.0024,0.0024,0.0049,0.0562,0.0024,0.0024
0.0024,0.0024,0.0024,0.0024,0.0024,0.0024,0.0024,0.0562,0.0024,0.0024
0.0024,0.0024,0.0024,0.0024,0.0024,0.0024,0.0024,0.0562,0.0024,0.0024
0.0024,0.0024,0.0024,0.0024,0.0024,0.0024,0.0024,0.0513,0.0024,0.0024
0.0024,0.0024,0.0024,0.0024,0.0049,0.0024,0.0024,0.0562,0.0024,0.0024
0.0024,0.0024,0.0024,0.0024,0.0024,0.0024,0.0024,0.0586,0.0024,0.0024
0.0024,0.0024,0.0024,0.0024,0.0024,0.0024,0.0024,0.0635,0.0024,0.0024
0.0024,0.0024,0.0024,0.0024,0.0024,0.0024,0.0024,0.0708,0.0024,0.0024
0.0024,0.0024,0.0024,0.0024,0.0024,0.0024,0.0024,0.0732,0.0024,0.0024
0.0024,0.0024,0.0024,0.0024,0.0024,0.0024,0.0049,0.0732,0.0024,0.0024
0.0024,0.0024,0.0024,0.0024,0.0024,0.0024,0.0098,0.0708,0.0024,0.0024
0.0024,0.0024,0.0024,0.0024,0.0024,0.0024,0.0122,0.0684,0.0024,0.0024
0.0024,0.0024,0.0024,0.0024,0.0024,0.0024,0.0195,0.0684,0.0024,0.0024
0.0024,0.0024,0.0024,0.0024,0.0049,0.0024,0.0269,0.0684,0.0024,0.0024
0.0024,0.0024,0.0024,0.0024,0.0024,0.0024,0.0269,0.0635,0.0024,0.0024
0.0024,0.0024,0.0024,0.0024,0.0024,0.0024,0.022,0.0562,0.0024,0.0024
0.0024,0.0024,0.0024,0.0024,0.0024,0.0024,0.0171,0.0537,0.0024,0.0024
0.0024,0.0024,0.0024,0.0024,0.0024,0.0024,0.0122,0.0513,0.0024,0.0024
0.0024,0.0024,0.0024,0.0024,0.0024,0.0024,0.0073,0.0513,0.0024,0.0024
0.0024,0.0024,0.0024,0.0024,0.0024,0.0024,0.0073,0.0513,0.0024,0.0024
0.0024,0.0024,0.0024,0.0024,0.0024,0.0024,0.0073,0.0513,0.0024,0.0024
0.0024,0.0024,0.0024,0.0024,0.0024,0.0024,0.0073,0.0464,0.0024,0.0024
0.0024,0.0024,0.0024,0.0024,0.0024,0.0024,0.0146,0.0513,0.0024,0.0024
0.0049,0.0024,0.0024,0.0024,0.0024,0.0024,0.0244,0.0659,0.0024,0.0024
0.0098,0.0024,0.0024,0.0024,0.0024,0.0024,0.0244,0.0757,0.0024,0.0024
0.0098,0.0024,0.0024,0.0024,0.0024,0.0024,0.0195,0.0732,0.0024,0.0024
0.0024,0.0024,0.0024,0.0024,0.0024,0.0024,0.0122,0.0635,0.0024,0.0024
0.0024,0.0024,0.0024,0.0024,0.0024,0.0024,0.0024,0.0537,0.0024,0.0024
0.0024,0.0024,0.0024,0.0024,0.0024,0.0024,0.0024,0.0415,0.0024,0.0024
0.0024,0.0024,0.0024,0.0024,0.0024,0.0024,0.0024,0.0342,0.0024,0.0024
0.0024,0.0024,0.0024,0.0024,0.0024,0.0024,0.0024,0.0342,0.0024,0.0024
0.0024,0.0024,0.0024,0.0024,0.0024,0.0024,0.0024,0.0439,0.0024,0.0024
0.0024,0.0024,0.0024,0.0024,0.0024,0.0024,0.0024,0.0464,0.0024,0.0024
0.0024,0.0024,0.0024,0.0024,0.0024,0.0024,0.0024,0.0513,0.0024,0.0024
0.0024,0.0024,0.0024,0.0024,0.0024,0.0024,0.0024,0.0537,0.0024,0.0024
0.0049,0.0024,0.0024,0.0024,0.0024,0.0024,0.0073,0.0659,0.0024,0.0024
0.0098,0.0024,0.0024,0.0024,0.0024,0.0024,0.0098,0.0757,0.0024,0.0024
0.0073,0.0024,0.0024,0.0024,0.0024,0.0024,0.0049,0.0757,0.0024,0.0024
0.0024,0.0024,0.0024,0.0024,0.0049,0.0024,0.0024,0.0684,0.0024,0.0024
0.0024,0.0024,0.0024,0.0024,0.0024,0.0024,0.0024,0.0586,0.0024,0.0024
0.0024,0.0024,0.0024,0.0024,0.0024,0.0024,0.0073,0.0635,0.0024,0.0024
0.0024,0.0024,0.0024,0.0024,0.0024,0.0024,0.0098,0.0708,0.0024,0.0024
0.0024,0.0024,0.0049,0.0024,0.0024,0.0024,0.0098,0.0732,0.0024,0.0024
0.0024,0.0024,0.0024,0.0024,0.0024,0.0024,0.0195,0.0757,0.0024,0.0024
0.0024,0.0024,0.0024,0.0024,0.0024,0.0024,0.0195,0.0732,0.0024,0.0024
0.0024,0.0024,0.0024,0.0024,0.0024,0.0024,0.0146,0.0635,0.0024,0.0024
0.0024,0.0024,0.0024,0.0024,0.0024,0.0024,0.0098,0.0513,0.0024,0.0049
0.0024,0.0024,0.0024,0.0024,0.0024,0.0024,0.0098,0.0513,0.0024,0.0024
0.0098,0.0024,0.0024,0.0024,0.0024,0.0024,0.0195,0.0757,0.0024,0.0024
0.0171,0.0024,0.0024,0.0024,0.0024,0.0024,0.022,0.083,0.0024,0.0024
0.0122,0.0024,0.0024,0.0024,0.0024,0.0024,0.0195,0.0781,0.0024,0.0024
0.0073,0.0024,0.0024,0.0024,0.0024,0.0024,0.0146,0.0684,0.0024,0.0024
0.0024,0.0024,0.0024,0.0024,0.0024,0.0024,0.0073,0.0586,0.0024,0.0024
0.0024,0.0024,0.0024,0.0024,0.0024,0.0024,0.0024,0.0537,0.0024,0.0024
0.0024,0.0024,0.0024,0.0024,0.0024,0.0024,0.0024,0.0513,0.0024,0.0024
0.0073,0.0024,0.0024,0.0024,0.0024,0.0024,0.0171,0.0659,0.0024,0.0024
0.0098,0.0024,0.0024,0.0024,0.0024,0.0024,0.0195,0.0732,0.0024,0.0024
0.0073,0.0024,0.0024,0.0024,0.0024,0.0024,0.0171,0.0732,0.0024,0.0024
0.0049,0.0024,0.0024,0.0024,0.0024,0.0024,0.0171,0.0732,0.0024,0.0024
0.0024,0.0024,0.0024,0.0024,0.0024,0.0024,0.0171,0.0684,0.0024,0.0024
0.0024,0.0024,0.0024,0.0024,0.0024,0.0024,0.0122,0.061,0.0024,0.0024
0.0024,0.0024,0.0024,0.0049,0.0024,0.0024,0.0098,0.0537,0.0024,0.0024
0.0024,0.0024,0.0024,0.0024,0.0024,0.0024,0.0098,0.0513,0.0024,0.0024
0.0024,0.0024,0.0024,0.0024,0.0024,0.0024,0.0098,0.0464,0.0024,0.0024
0.0024,0.0024,0.0024,0.0024,0.0024,0.0024,0.0049,0.0391,0.0024,0.0024
0.0024,0.0024,0.0024,0.0024,0.0024,0.0024,0.0024,0.0366,0.0024,0.0024
0.0024,0.0024,0.0024,0.0024,0.0024,0.0024,0.0024,0.0391,0.0024,0.0024
0.0024,0.0024,0.0024,0.0024,0.0024,0.0024,0.0024,0.0439,0.0024,0.0024
0.0049,0.0024,0.0024,0.0024,0.0024,0.0024,0.0024,0.0439,0.0024,0.0024
0.0024,0.0024,0.0024,0.0024,0.0024,0.0024,0.0024,0.0391,0.0024,0.0024
0.0024,0.0024,0.0024,0.0024,0.0049,0.0024,0.0024,0.0366,0.0024,0.0024
0.0024,0.0024,0.0024,0.0024,0.0024,0.0024,0.0024,0.0391,0.0024,0.0024
0.0024,0.0024,0.0049,0.0024,0.0024,0.0024,0.0024,0.0464,0.0024,0.0024
0.0024,0.0024,0.0049,0.0024,0.0024,0.0024,0.0049,0.0513,0.0024,0.0024
0.0024,0.0024,0.0024,0.0024,0.0024,0.0024,0.0073,0.0537,0.0024,0.0024
0.0024,0.0024,0.0024,0.0024,0.0024,0.0024,0.0049,0.0537,0.0024,0.0024
0.0024,0.0024,0.0024,0.0024,0.0024,0.0024,0.0073,0.0635,0.0024,0.0024
0.0024,0.0024,0.0024,0.0024,0.0024,0.0024,0.0098,0.0757,0.0024,0.0024
0.0024,0.0024,0.0024,0.0024,0.0024,0.0024,0.0049,0.0757,0.0024,0.0024
0.0024,0.0024,0.0024,0.0024,0.0024,0.0049,0.0024,0.0708,0.0024,0.0024
0.0024,0.0024,0.0024,0.0024,0.0024,0.0024,0.0049,0.0684,0.0024,0.0024
0.0049,0.0024,0.0024,0.0024,0.0024,0.0024,0.0098,0.0659,0.0024,0.0024
0.0073,0.0024,0.0024,0.0024,0.0024,0.0024,0.0195,0.0684,0.0024,0.0024
0.0049,0.0024,0.0024,0.0024,0.0024,0.0024,0.022,0.0659,0.0024,0.0024
0.0024,0.0024,0.0024,0.0024,0.0024,0.0024,0.0195,0.061,0.0024,0.0024
0.0049,0.0024,0.0024,0.0024,0.0024,0.0024,0.0171,0.0659,0.0024,0.0024
0.0049,0.0024,0.0024,0.0024,0.0024,0.0024,0.0122,0.061,0.0024,0.0024
0.0049,0.0024,0.0024,0.0024,0.0024,0.0024,0.0122,0.0635,0.0024,0.0024
0.0049,0.0024,0.0024,0.0024,0.0024,0.0024,0.0171,0.0684,0.0024,0.0024
0.0049,0.0024,0.0024,0.0024,0.0024,0.0024,0.0171,0.0684,0.0024,0.0024
0.0073,0.0024,0.0024,0.0024,0.0024,0.0024,0.022,0.0757,0.0024,0.0024
0.0098,0.0024,0.0024,0.0024,0.0024,0.0024,0.0244,0.0806,0.0024,0.0024
0.0073,0.0024,0.0024,0.0024,0.0024,0.0024,0.022,0.0781,0.0024,0.0024
0.0049,0.0024,0.0024,0.0024,0.0024,0.0024,0.0171,0.0806,0.0024,0.0024
0.0024,0.0024,0.0024,0.0024,0.0024,0.0024,0.0171,0.0854,0.0024,0.0024
0.0024,0.0024,0.0024,0.0024,0.0024,0.0024,0.0146,0.083,0.0024,0.0024
0.0024,0.0024,0.0024,0.0024,0.0024,0.0024,0.0098,0.0781,0.0024,0.0024
0.0024,0.0024,0.0024,0.0024,0.0024,0.0024,0.0098,0.0781,0.0024,0.0024
0.0049,0.0024,0.0024,0.0024,0.0049,0.0024,0.0073,0.0928,0.0024,0.0024
0.0049,0.0024,0.0024,0.0024,0.0024,0.0024,0.0024,0.0952,0.0024,0.0024
0.0024,0.0024,0.0024,0.0024,0.0049,0.0024,0.0024,0.0903,0.0024,0.0024
0.0024,0.0024,0.0024,0.0024,0.0024,0.0024,0.0024,0.0781,0.0024,0.0024
0.0024,0.0024,0.0024,0.0024,0.0024,0.0024,0.0024,0.0732,0.0024,0.0024
0.0024,0.0024,0.0024,0.0024,0.0024,0.0024,0.0073,0.0708,0.0024,0.0024
0.0024,0.0024,0.0024,0.0024,0.0049,0.0024,0.0073,0.0659,0.0024,0.0024
0.0024,0.0024,0.0024,0.0024,0.0024,0.0024,0.0049,0.0684,0.0024,0.0024
0.0049,0.0024,0.0024,0.0024,0.0024,0.0024,0.0049,0.0684,0.0024,0.0024
0.0073,0.0024,0.0024,0.0024,0.0024,0.0024,0.0073,0.0732,0.0024,0.0024
0.0024,0.0024,0.0024,0.0024,0.0024,0.0024,0.0024,0.0732,0.0024,0.0024
0.0024,0.0024,0.0024,0.0024,0.0024,0.0024,0.0049,0.0635,0.0024,0.0024
0.0024,0.0024,0.0024,0.0024,0.0024,0.0024,0.0049,0.0562,0.0024,0.0024
0.0024,0.0024,0.0024,0.0024,0.0024,0.0024,0.0024,0.0562,0.0024,0.0024
0.0024,0.0024,0.0024,0.0024,0.0024,0.0024,0.0024,0.0562,0.0024,0.0024
0.0049,0.0024,0.0024,0.0024,0.0024,0.0024,0.0024,0.061,0.0024,0.0024
0.0049,0.0024,0.0024,0.0024,0.0024,0.0024,0.0049,0.0659,0.0024,0.0024
0.0024,0.0024,0.0024,0.0024,0.0024,0.0024,0.0049,0.061,0.0024,0.0024
0.0024,0.0024,0.0024,0.0024,0.0024,0.0024,0.0024,0.0537,0.0024,0.0024
0.0024,0.0024,0.0024,0.0024,0.0024,0.0024,0.0024,0.0488,0.0024,0.0024
0.0024,0.0024,0.0024,0.0024,0.0024,0.0024,0.0024,0.0464,0.0024,0.0024
0.0024,0.0024,0.0024,0.0024,0.0024,0.0024,0.0024,0.0439,0.0024,0.0024
0.0024,0.0024,0.0024,0.0024,0.0024,0.0024,0.0024,0.0366,0.0024,0.0024
0.0024,0.0024,0.0024,0.0024,0.0024,0.0024,0.0024,0.0391,0.0024,0.0024
0.0024,0.0024,0.0024,0.0024,0.0024,0.0024,0.0024,0.0415,0.0024,0.0024
0.0024,0.0024,0.0024,0.0024,0.0024,0.0024,0.0024,0.0391,0.0024,0.0024
0.0024,0.0024,0.0024,0.0024,0.0024,0.0024,0.0024,0.0439,0.0024,0.0024
0.0024,0.0024,0.0024,0.0024,0.0024,0.0024,0.0049,0.0488,0.0024,0.0024
0.0024,0.0024,0.0024,0.0024,0.0024,0.0024,0.0171,0.0513,0.0024,0.0049
0.0024,0.0024,0.0024,0.0024,0.0024,0.0024,0.0391,0.0586,0.0024,0.0146
0.0024,0.0024,0.0024,0.0024,0.0024,0.0024,0.0488,0.061,0.0024,0.0146
0.0024,0.0024,0.0024,0.0024,0.0024,0.0024,0.0513,0.0635,0.0024,0.0122
0.0024,0.0024,0.0024,0.0024,0.0024,0.0024,0.0464,0.0586,0.0024,0.0098
0.0024,0.0024,0.0024,0.0024,0.0024,0.0024,0.0342,0.0586,0.0024,0.0024
0.0024,0.0024,0.0024,0.0024,0.0024,0.0024,0.0244,0.0513,0.0024,0.0024
0.0024,0.0024,0.0024,0.0024,0.0024,0.0024,0.0171,0.0488,0.0024,0.0024
0.0024,0.0024,0.0024,0.0024,0.0024,0.0024,0.0171,0.0513,0.0024,0.0024
0.022,0.0024,0.0024,0.0024,0.0024,0.0024,0.0146,0.0513,0.0024,0.0024
0.0342,0.0024,0.0024,0.0024,0.0024,0.0024,0.0098,0.0513,0.0024,0.0049
0.0342,0.0024,0.0024,0.0024,0.0024,0.0024,0.0073,0.0537,0.0024,0.0073
0.0317,0.0024,0.0024,0.0024,0.0024,0.0024,0.022,0.0537,0.0024,0.0098
0.0293,0.0024,0.0024,0.0024,0.0024,0.0024,0.0317,0.0513,0.0024,0.0122
0.022,0.0024,0.0049,0.0024,0.0024,0.0024,0.0415,0.0513,0.0024,0.0171
0.022,0.0024,0.0024,0.0024,0.0024,0.0024,0.0513,0.0513,0.0024,0.0122
0.0244,0.0024,0.0024,0.0024,0.0024,0.0024,0.0464,0.0537,0.0024,0.0073
0.022,0.0024,0.0024,0.0024,0.0024,0.0024,0.0366,0.0537,0.0024,0.0024
0.0195,0.0024,0.0024,0.0024,0.0024,0.0024,0.0293,0.0562,0.0024,0.0024
0.0317,0.0146,0.0024,0.0024,0.0024,0.0024,0.022,0.0562,0.0024,0.0024
0.0659,0.0317,0.0024,0.0024,0.0024,0.0024,0.0391,0.0562,0.0024,0.0024
0.083,0.0366,0.0024,0.0024,0.0024,0.0024,0.0464,0.0537,0.0024,0.0049
0.0806,0.0342,0.0024,0.0024,0.0024,0.0024,0.0488,0.0586,0.0024,0.0024
0.0732,0.0244,0.0024,0.0024,0.0024,0.0024,0.0513,0.061,0.0024,0.0024
0.061,0.0122,0.0024,0.0024,0.0024,0.0024,0.0439,0.0635,0.0024,0.0024
0.0488,0.0024,0.0024,0.0024,0.0024,0.0024,0.0415,0.0635,0.0024,0.0024
0.0488,0.0024,0.0024,0.0024,0.0024,0.0024,0.1123,0.0781,0.0024,0.0098
0.0513,0.0024,0.0024,0.0024,0.0024,0.0024,0.1807,0.0903,0.0024,0.0244
0.0537,0.0024,0.0024,0.0024,0.0024,0.0024,0.2075,0.0952,0.0024,0.0269
0.0586,0.0024,0.0024,0.0024,0.0024,0.0024,0.2026,0.0977,0.0024,0.0293
0.0586,0.0024,0.0024,0.0024,0.0024,0.0024,0.1831,0.0928,0.0024,0.0293
0.0635,0.0024,0.0024,0.0024,0.0024,0.0024,0.1611,0.0854,0.0024,0.022
0.0586,0.0024,0.0024,0.0024,0.0024,0.0024,0.1538,0.083,0.0024,0.0171
0.0562,0.0024,0.0024,0.0024,0.0024,0.0024,0.1465,0.0879,0.0024,0.0122
0.0586,0.0024,0.0024,0.0024,0.0024,0.0024,0.1709,0.105,0.0024,0.022
0.0708,0.0073,0.0024,0.0024,0.0024,0.0024,0.2368,0.1196,0.0024,0.0537
0.0781,0.0073,0.0024,0.0024,0.0024,0.0024,0.2905,0.1318,0.0024,0.0757
0.0781,0.0098,0.0024,0.0024,0.0024,0.0024,0.2954,0.127,0.0024,0.0757
0.0879,0.0098,0.0024,0.0024,0.0024,0.0024,0.2783,0.1172,0.0024,0.0757
0.0854,0.0024,0.0024,0.0024,0.0024,0.0024,0.2734,0.1123,0.0024,0.0806
0.1025,0.0024,0.0024,0.0024,0.0024,0.0024,0.293,0.1172,0.0024,0.0806
0.1221,0.0049,0.0024,0.0024,0.0024,0.0024,0.3076,0.1245,0.0024,0.0781
0.1294,0.022,0.0024,0.0024,0.0024,0.0024,0.3149,0.1294,0.0049,0.0977
0.2026,0.0391,0.0024,0.0024,0.0024,0.0024,0.3979,0.144,0.0122,0.1196
0.2441,0.0513,0.0024,0.0024,0.0024,0.0024,0.4346,0.1514,0.0146,0.1245
0.2686,0.061,0.0024,0.0024,0.0024,0.0024,0.4492,0.1538,0.0171,0.1318
0.2783,0.061,0.0049,0.0024,0.0024,0.0024,0.4541,0.1587,0.0244,0.1465
0.2734,0.0586,0.0024,0.0024,0.0024,0.0024,0.4663,0.1611,0.0244,0.1611
0.2637,0.0586,0.0024,0.0024,0.0024,0.0024,0.5786,0.1733,0.022,0.1782
0.2417,0.0586,0.0024,0.0024,0.0024,0.0024,0.6177,0.1758,0.0171,0.1929
0.2295,0.0684,0.0024,0.0024,0.0024,0.0024,0.6567,0.1782,0.0171,0.2271
0.2148,0.0732,0.0024,0.0024,0.0024,0.0024,0.647,0.1709,0.0146,0.2319
0.1929,0.083,0.0024,0.0024,0.0024,0.0024,0.5859,0.1563,0.0122,0.2246
0.1831,0.0928,0.0049,0.0024,0.0024,0.0024,0.5493,0.1538,0.0122,0.2393
0.1782,0.0977,0.0024,0.0024,0.0024,0.0024,0.5615,0.1489,0.0073,0.2319
0.1904,0.1001,0.0024,0.0024,0.0024,0.0024,0.6104,0.1611,0.0024,0.2295
0.188,0.0952,0.0024,0.0024,0.0024,0.0024,0.6641,0.1758,0.0024,0.249
0.2075,0.1025,0.0024,0.0024,0.0024,0.0024,0.6567,0.1758,0.0024,0.2734
0.21,0.1172,0.0024,0.0024,0.0024,0.0024,0.6104,0.1709,0.0024,0.2612
0.1953,0.1245,0.0024,0.0024,0.0024,0.0024,0.6128,0.1636,0.0024,0.2466
0.1855,0.1196,0.0024,0.0024,0.0024,0.0024,0.6689,0.1709,0.0049,0.2393
0.1709,0.105,0.0024,0.0024,0.0024,0.0024,0.6763,0.1685,0.0195,0.2246
0.1563,0.1074,0.0024,0.0024,0.0024,0.0024,0.6763,0.1782,0.0244,0.2148
0.1733,0.1685,0.0024,0.0024,0.0024,0.0024,0.6689,0.1831,0.0464,0.1978
0.1807,0.2319,0.0098,0.0024,0.0024,0.0024,0.6348,0.1855,0.0952,0.1807
0.2344,0.2637,0.0098,0.0024,0.0024,0.0024,0.6567,0.1978,0.1123,0.1978
0.2832,0.271,0.0073,0.0024,0.0024,0.0024,0.708,0.21,0.1099,0.1953
0.2832,0.2539,0.0024,0.0024,0.0024,0.0024,0.6885,0.2148,0.0952,0.1807
0.2612,0.2246,0.0024,0.0024,0.0024,0.0024,0.6616,0.2148,0.0781,0.1685
0.2588,0.1978,0.0024,0.0024,0.0024,0.0024,0.6299,0.2124,0.0659,0.1733
0.2563,0.166,0.0049,0.0024,0.0024,0.0024,0.5762,0.2026,0.0586,0.1709
0.2612,0.1587,0.0024,0.0024,0.0024,0.0024,0.5786,0.2026,0.0513,0.1685
0.2539,0.21,0.0049,0.0024,0.0024,0.0024,0.6274,0.2222,0.0488,0.1611
0.2295,0.2393,0.0024,0.0024,0.0024,0.0024,0.6396,0.2246,0.083,0.1465
0.2173,0.2441,0.0024,0.0024,0.0024,0.0024,0.6226,0.2246,0.1025,0.1587
0.2295,0.2368,0.0049,0.0024,0.0024,0.0049,0.6055,0.2417,0.1123,0.2075
0.2759,0.2539,0.0073,0.0024,0.0024,0.0098,0.5835,0.2563,0.1196,0.2539
0.3003,0.2515,0.0073,0.0024,0.0024,0.0122,0.6372,0.2686,0.1147,0.2734
0.2954,0.2441,0.0098,0.0024,0.0024,0.0146,0.6958,0.271,0.1074,0.3027
0.2808,0.2295,0.0146,0.0049,0.0024,0.0122,0.7104,0.2881,0.0952,0.4053
0.2661,0.2124,0.0146,0.0049,0.0024,0.0098,0.6958,0.293,0.0806,0.4419
0.2563,0.1978,0.0098,0.0024,0.0024,0.0049,0.7007,0.293,0.0684,0.4248
0.2515,0.1807,0.0073,0.0024,0.0024,0.0024,0.8105,0.2832,0.0562,0.4053
0.249,0.1758,0.0073,0.0024,0.0024,0.0024,0.8447,0.2661,0.0488,0.376
0.2905,0.1709,0.0098,0.0024,0.0024,0.0024,0.8301,0.2515,0.0513,0.3564
0.3149,0.1685,0.0098,0.0024,0.0024,0.0024,0.7837,0.2393,0.0513,0.4028
0.3247,0.1587,0.0073,0.0024,0.0024,0.0024,0.7642,0.2295,0.0562,0.4907
0.3247,0.1489,0.0122,0.0049,0.0024,0.0024,0.7764,0.2515,0.0537,0.5444
0.3149,0.1514,0.0171,0.0073,0.0024,0.0049,0.8301,0.2832,0.061,0.5786
0.2954,0.1636,0.0195,0.0098,0.0024,0.0098,0.9131,0.3271,0.0781,0.5591
0.2759,0.1636,0.0195,0.0073,0.0024,0.0098,0.9326,0.3442,0.0806,0.5029
0.2563,0.1685,0.022,0.0073,0.0024,0.0098,0.9033,0.3394,0.083,0.437
0.2759,0.1929,0.0269,0.0122,0.0049,0.0122,0.9253,0.3564,0.0854,0.3735
0.3003,0.2295,0.0293,0.0098,0.0049,0.0146,0.9277,0.3516,0.0903,0.3491
0.3174,0.2368,0.0293,0.0122,0.0049,0.0171,0.9741,0.3711,0.0928,0.3711
0.3271,0.2319,0.0293,0.0171,0.0073,0.0195,1.0498,0.3955,0.0879,0.3906
0.3223,0.2295,0.0269,0.0195,0.0098,0.022,1.04,0.4053,0.0903,0.3906
0.3003,0.2368,0.0317,0.0195,0.0073,0.0195,0.9692,0.3882,0.1025,0.3687
0.3101,0.2588,0.0342,0.0146,0.0024,0.0171,0.9985,0.3589,0.1172,0.3467
0.3198,0.2661,0.0317,0.0098,0.0024,0.0171,1.1108,0.3516,0.1245,0.3271
0.3271,0.2759,0.0293,0.0098,0.0024,0.0171,1.1108,0.3394,0.1245,0.3247
0.3149,0.2686,0.0269,0.0073,0.0024,0.0146,1.0596,0.3174,0.1196,0.3052
0.3345,0.271,0.022,0.0049,0.0024,0.0122,0.9985,0.3076,0.1245,0.2734
0.3809,0.293,0.0293,0.0049,0.0024,0.0122,0.9937,0.3125,0.1343,0.2539
0.4858,0.3101,0.0391,0.0049,0.0049,0.0122,1.0718,0.3125,0.1465,0.2393
0.752,0.3589,0.0513,0.0146,0.0049,0.0171,1.106,0.3467,0.1538,0.2441
0.8472,0.3809,0.0562,0.0195,0.0073,0.0244,1.1011,0.3613,0.1538,0.2539
0.8374,0.3735,0.0537,0.022,0.0073,0.022,1.0254,0.3442,0.1514,0.2441
0.7739,0.3735,0.061,0.0244,0.0049,0.0195,0.9521,0.3223,0.1514,0.2271
0.7422,0.3687,0.0635,0.0269,0.0073,0.0146,0.8472,0.3027,0.1538,0.2026
0.7104,0.3687,0.0659,0.0269,0.0049,0.0098,0.7813,0.2808,0.1685,0.1904
0.7813,0.3955,0.0781,0.0293,0.0073,0.0098,0.8203,0.2759,0.2222,0.1855
0.9326,0.4443,0.1025,0.0366,0.0098,0.0122,0.9644,0.2808,0.249,0.1904
1.0474,0.4883,0.1099,0.0366,0.0098,0.0171,1.1035,0.3101,0.271,0.2051
1.1182,0.5298,0.1074,0.0342,0.0098,0.0171,1.2256,0.354,0.2734,0.2197
1.0889,0.5273,0.0928,0.0317,0.0073,0.0146,1.2109,0.3589,0.2612,0.21
1.0425,0.5078,0.0806,0.0244,0.0024,0.0073,1.1475,0.3442,0.2344,0.1904
0.9863,0.498,0.0757,0.0244,0.0024,0.0073,1.0693,0.332,0.2075,0.166
0.9717,0.4761,0.0757,0.0293,0.0049,0.0122,1.1499,0.3467,0.2222,0.1587
1.1816,0.5249,0.0977,0.0415,0.0122,0.0317,1.2061,0.3882,0.271,0.1709
1.3672,0.5859,0.1147,0.0488,0.0195,0.0415,1.2085,0.4126,0.2954,0.1709
1.4526,0.6348,0.127,0.0537,0.0195,0.0391,1.1792,0.4102,0.2954,0.2002
1.4014,0.6494,0.1318,0.0513,0.0171,0.0342,1.1475,0.3857,0.2808,0.2295
1.2793,0.6543,0.1318,0.0488,0.0195,0.0317,1.0596,0.3564,0.2686,0.2246
1.2085,0.6616,0.1294,0.0464,0.0171,0.0244,0.9546,0.3735,0.2588,0.2075
1.2622,0.6689,0.1343,0.0464,0.0171,0.0244,0.8789,0.4028,0.2588,0.1929
1.311,0.6689,0.1318,0.0439,0.0171,0.0269,0.835,0.4102,0.2637,0.188
1.2842,0.6836,0.1245,0.0415,0.0171,0.0269,0.8203,0.4468,0.2563,0.1978
1.3428,0.6836,0.1245,0.0439,0.0146,0.022,0.7861,0.4932,0.2759,0.2051
1.2866,0.6714,0.1294,0.0464,0.0122,0.0171,0.7495,0.5249,0.2856,0.1929
1.2671,0.6836,0.1343,0.0488,0.0146,0.0195,0.6934,0.5151,0.3345,0.1929
1.4038,0.7129,0.1465,0.0537,0.0171,0.0342,0.6641,0.5347,0.3882,0.21
1.4185,0.7373,0.1514,0.0537,0.0171,0.0391,0.6641,0.5444,0.4175,0.249
1.3916,0.7764,0.1538,0.0586,0.0171,0.0366,0.6494,0.5493,0.4517,0.2563
1.3721,0.7715,0.144,0.0562,0.0146,0.0342,0.7397,0.5444,0.459,0.2539
1.4087,0.7886,0.1416,0.0537,0.0146,0.0342,0.7935,0.52,0.4492,0.2417
1.4575,0.8105,0.144,0.0562,0.0171,0.0342,0.7861,0.4932,0.4272,0.2441
1.3867,0.8032,0.1367,0.0537,0.0171,0.0366,0.7544,0.5078,0.3955,0.2319
1.2622,0.7764,0.1294,0.0513,0.0171,0.0342,0.6836,0.5298,0.3809,0.2246
1.167,0.7617,0.1343,0.0488,0.0171,0.0342,0.6201,0.5396,0.3735,0.2295
1.1401,0.7642,0.1392,0.0464,0.0171,0.0293,0.5444,0.5322,0.4175,0.2222
1.3916,0.7764,0.1587,0.0513,0.022,0.0317,0.5103,0.5298,0.4858,0.2197
1.6968,0.7642,0.1758,0.0537,0.0269,0.0366,0.5591,0.5273,0.5005,0.2295
1.7749,0.7837,0.1831,0.0537,0.0269,0.0366,0.5713,0.5029,0.4932,0.2271
1.8604,0.7861,0.1831,0.0562,0.0269,0.0366,0.5347,0.4761,0.4956,0.2222
1.8018,0.7617,0.1758,0.0586,0.0293,0.0342,0.4907,0.4565,0.4858,0.2295
1.6699,0.73,0.1831,0.0659,0.0293,0.0317,0.4517,0.5444,0.4907,0.2319
1.5967,0.7495,0.2197,0.0732,0.0317,0.0366,0.4492,0.6201,0.6616,0.2734
1.6797,0.8203,0.2612,0.0781,0.0317,0.0391,0.4395,0.6445,0.8057,0.2881
1.8652,0.8887,0.2686,0.0757,0.0293,0.0317,0.4028,0.6348,0.8618,0.2856
1.8481,0.9106,0.2661,0.0732,0.0293,0.0244,0.376,0.6055,0.8643,0.271
1.8848,0.9692,0.2734,0.0781,0.0366,0.0269,0.3711,0.5933,0.896,0.2588
1.9629,1.0474,0.3003,0.0928,0.0488,0.0391,0.3931,0.5957,0.8911,0.2563
1.9238,1.1328,0.3271,0.1074,0.061,0.0537,0.4541,0.625,0.9009,0.2686
2.0459,1.1792,0.3394,0.1245,0.0732,0.0684,0.5249,0.6909,0.9521,0.2808
2.3145,1.2769,0.3564,0.1367,0.0781,0.0684,0.5518,0.835,0.9668,0.2856
2.8296,1.5967,0.4028,0.1563,0.0879,0.0757,0.5542,0.9766,0.9814,0.293
2.9346,1.7505,0.4175,0.166,0.0903,0.0757,0.5273,0.9985,0.9448,0.2832
2.8467,1.8018,0.4346,0.1709,0.0903,0.0708,0.481,1.0278,0.9473,0.2783
2.7734,1.7896,0.4321,0.1685,0.0879,0.0708,0.4565,1.1206,0.9399,0.2808
2.7661,1.7456,0.4443,0.1709,0.0879,0.0684,0.4224,1.377,0.9302,0.2686
2.9419,1.77,0.4517,0.1733,0.0903,0.0708,0.4126,1.5503,0.9204,0.2881
2.9419,1.7456,0.4712,0.1807,0.0977,0.0708,0.4053,1.5479,0.8887,0.3296
2.7441,1.687,0.4907,0.1831,0.0977,0.0659,0.3735,1.5332,0.8325,0.3296
2.915,1.6968,0.5322,0.188,0.1001,0.0635,0.3491,1.7749,0.8154,0.3418
3.3691,1.748,0.5518,0.1978,0.105,0.0659,0.3442,2.063,0.8936,0.3589
3.6523,1.9092,0.6128,0.2148,0.1123,0.0684,0.3394,2.2607,1.0352,0.3711
3.6792,2.0361,0.6714,0.2222,0.1123,0.0635,0.3223,2.2632,1.106,0.376
3.4375,2.0532,0.7422,0.2368,0.1172,0.061,0.3101,2.1216,1.0962,0.4565
3.1006,2.0581,0.7837,0.249,0.127,0.0684,0.3198,2.1313,1.0352,0.5713
2.793,1.9751,0.8521,0.2783,0.144,0.0781,0.3589,2.1582,0.9546,0.6079
2.7515,1.9141,0.9082,0.2905,0.1611,0.0854,0.376,2.168,0.9351,0.6494
2.8662,1.8896,0.8984,0.2881,0.166,0.0879,0.3882,2.3486,0.9033,0.7275
2.8149,1.8896,0.896,0.2979,0.166,0.0854,0.3809,2.6782,0.8765,0.769
2.7979,1.9409,0.9839,0.3369,0.1831,0.0952,0.3955,2.9297,0.9204,0.7959
2.8149,2.085,1.0205,0.3735,0.1978,0.1025,0.4175,3.3618,0.9521,0.8154
2.7026,2.2656,1.0498,0.3906,0.1904,0.0977,0.4224,3.5864,1.123,0.9058
2.6807,2.4268,1.1597,0.4248,0.1953,0.0952,0.4199,3.8159,1.1841,1.0327
2.7002,2.4829,1.2329,0.4541,0.2026,0.0977,0.4224,3.9624,1.1743,1.1816
2.7319,2.583,1.2598,0.4785,0.2197,0.1123,0.4565,4.231,1.1816,1.4038
2.7344,2.7466,1.2402,0.4834,0.2295,0.1294,0.5078,4.3579,1.1987,1.6138
2.6001,3.0664,1.2476,0.4785,0.2271,0.1318,0.5225,4.2578,1.2573,1.6382
2.6855,3.3521,1.2598,0.4761,0.2246,0.1343,0.5225,4.1455,1.2451,1.6577
2.8198,3.4546,1.3232,0.4883,0.2246,0.1318,0.5273,4.0039,1.2134,1.6431
2.7637,3.3496,1.3721,0.4956,0.2246,0.1318,0.5176,3.855,1.167,1.5991
2.7954,3.2788,1.355,0.4858,0.2246,0.1294,0.52,3.7256,1.1206,1.5356
2.7441,3.1152,1.2939,0.4688,0.2246,0.1245,0.5103,3.9136,1.0742,1.4868
2.5464,2.937,1.2646,0.4639,0.21,0.1196,0.5054,3.9209,1.1353,1.5039
2.5244,2.8662,1.3867,0.5103,0.2319,0.127,0.5078,3.9233,1.1987,1.5942
2.522,2.749,1.4697,0.5347,0.2466,0.1294,0.5005,3.8501,1.2305,1.604
2.4756,2.6587,1.4673,0.5298,0.249,0.1221,0.4834,3.9331,1.2573,1.7041
2.3877,2.7026,1.4478,0.5273,0.2515,0.1245,0.5103,4.2236,1.2598,1.7065
2.2461,2.688,1.3867,0.5029,0.2417,0.1196,0.5029,4.2188,1.2646,1.6284
2.2266,2.6563,1.4063,0.498,0.2466,0.127,0.5273,4.3921,1.3916,1.543
2.1387,2.4585,1.3428,0.4663,0.2344,0.1245,0.5298,4.3359,1.4014,1.4844
2.0557,2.2632,1.2524,0.4321,0.2173,0.1147,0.5103,4.1382,1.3257,1.416
1.9434,2.1851,1.3037,0.4419,0.21,0.1099,0.4858,4.043,1.2354,1.3916
2.0532,2.1655,1.3623,0.4834,0.2246,0.1074,0.4883,4.1382,1.1816,1.3818
2.1533,2.3145,1.377,0.5054,0.2319,0.1099,0.481,4.0723,1.3184,1.3452
2.1997,2.4634,1.3354,0.5005,0.2246,0.105,0.4639,3.8892,1.4429,1.3135
2.0923,2.6929,1.2988,0.4932,0.2148,0.0977,0.437,3.7256,1.5112,1.2769
1.9507,2.7686,1.2451,0.4761,0.2075,0.1001,0.4346,3.7207,1.4771,1.2524
1.8213,2.7295,1.1572,0.4541,0.1978,0.0928,0.415,3.5547,1.4111,1.1963
1.7944,2.6514,1.084,0.4297,0.188,0.0903,0.4199,3.5303,1.3232,1.189
1.7456,2.5049,1.04,0.4126,0.1904,0.0903,0.4248,3.418,1.2354,1.2183
1.6675,2.2998,1.0791,0.4248,0.2051,0.0928,0.4199,3.6646,1.1646,1.2231
1.5796,2.1777,1.0889,0.4517,0.2173,0.0952,0.4102,3.999,1.2109,1.2061
1.5137,2.002,1.0767,0.4468,0.2197,0.0977,0.4199,4.4189,1.1865,1.1865
1.46,1.8726,1.0791,0.4321,0.2173,0.1001,0.4199,4.4287,1.2061,1.1963
1.4282,1.7383,1.0156,0.3955,0.2051,0.0977,0.4248,4.2383,1.1548,1.1719
1.4087,1.5771,0.9595,0.3564,0.188,0.0928,0.4077,4.0332,1.062,1.1133
1.3721,1.4429,0.918,0.3296,0.1782,0.0903,0.4077,4.0552,1.04,1.106
1.3257,1.4087,0.8472,0.3003,0.166,0.0854,0.4004,4.1528,1.0425,1.1279
1.3672,1.4404,0.8032,0.2979,0.1685,0.0854,0.4248,4.4653,1.1646,1.1108
1.4014,1.4624,0.7715,0.293,0.1758,0.0928,0.459,4.6631,1.2305,1.0547
1.3647,1.4282,0.7788,0.2905,0.1758,0.0952,0.4639,4.646,1.1914,0.9985
1.5015,1.4087,0.8545,0.3101,0.188,0.1001,0.481,4.6289,1.1621,1.0229
1.5771,1.4502,0.8618,0.3149,0.188,0.0977,0.4785,4.4922,1.1133,1.0278
1.5747,1.5991,0.9229,0.3247,0.1855,0.0952,0.4785,4.4482,1.1035,0.9961
1.4893,1.6553,0.8984,0.3149,0.1758,0.0903,0.4517,4.1992,1.0889,0.9351
1.3477,1.626,0.8618,0.293,0.1611,0.0806,0.4224,3.8574,1.0205,0.8765
1.2207,1.5576,0.7959,0.2686,0.1489,0.0732,0.4077,3.5571,0.9326,0.8252
1.1377,1.4575,0.7446,0.249,0.1392,0.0684,0.3931,3.5278,0.835,0.8325
1.1719,1.3696,0.7153,0.2441,0.1416,0.0757,0.4004,3.7207,0.7617,0.8496
1.2451,1.3721,0.7178,0.2637,0.1538,0.0781,0.4248,4.0552,0.7471,0.8252
1.2231,1.4404,0.7153,0.2563,0.1489,0.0757,0.4248,4.1235,0.73,0.7715
1.1621,1.4917,0.6958,0.2393,0.1367,0.0708,0.4004,4.1626,0.7178,0.7153
1.1279,1.4136,0.6348,0.2148,0.1196,0.0635,0.3735,3.9258,0.6982,0.7129
1.0767,1.3037,0.6128,0.2051,0.1099,0.0586,0.3467,3.584,0.6689,0.6934
1.0059,1.1841,0.5884,0.1978,0.1025,0.0537,0.3345,3.3057,0.6226,0.7031
0.9229,1.084,0.5518,0.1831,0.0928,0.0464,0.3149,3.1421,0.6226,0.7568
0.8545,1.106,0.5469,0.1782,0.0854,0.0391,0.2979,3.0103,0.6079,0.7715
0.8594,1.2329,0.5737,0.1782,0.0806,0.0366,0.2954,3.1567,0.6738,0.752
0.8545,1.2305,0.5591,0.1709,0.0757,0.0317,0.2905,3.1885,0.6982,0.7153
0.8521,1.1768,0.5322,0.1636,0.0708,0.0293,0.2856,3.2275,0.6934,0.6836
0.8911,1.1963,0.5127,0.1563,0.0684,0.0244,0.2881,3.1763,0.6836,0.6372
0.9741,1.3843,0.5322,0.1636,0.0757,0.0293,0.3101,3.2642,0.7568,0.6519
0.9912,1.5332,0.5322,0.1685,0.0806,0.0342,0.3198,3.2666,0.8081,0.6274
0.9375,1.5527,0.5322,0.166,0.0781,0.0317,0.3052,3.1274,0.8179,0.5811
0.9082,1.4795,0.5322,0.1709,0.0757,0.0293,0.2979,3.02,0.8252,0.5347
0.9033,1.4185,0.5103,0.166,0.0757,0.0293,0.2979,3.0103,0.8252,0.4858
0.9424,1.3452,0.5273,0.166,0.0757,0.0293,0.2954,3.0469,0.8691,0.4443
0.918,1.2476,0.5273,0.1611,0.0732,0.0342,0.2881,2.9761,0.8618,0.4297
0.8716,1.1938,0.5005,0.1538,0.0684,0.0317,0.2686,2.9565,0.8325,0.481
0.8154,1.1328,0.4688,0.1465,0.0635,0.0269,0.2466,2.9224,0.8716,0.5103
0.813,1.0449,0.4541,0.1416,0.061,0.022,0.2319,2.9028,0.8667,0.4785
0.8667,0.957,0.4614,0.144,0.061,0.0195,0.2197,2.8516,0.8301,0.4468
0.8887,0.9106,0.4956,0.144,0.061,0.0171,0.2197,2.8931,0.791,0.4077
0.896,0.8984,0.5054,0.1514,0.0708,0.0195,0.2393,2.9346,0.7837,0.3784
0.8618,0.8643,0.4907,0.1465,0.0757,0.0195,0.2417,2.8589,0.73,0.3467
0.8154,0.8179,0.4834,0.1514,0.0757,0.0195,0.2319,2.6758,0.6714,0.3296
0.8032,0.7568,0.4712,0.1514,0.0781,0.0244,0.2246,2.5537,0.7031,0.3271
0.7935,0.7617,0.4785,0.1538,0.0781,0.0269,0.2148,2.4341,0.6885,0.3345
0.769,0.7568,0.4614,0.1514,0.0732,0.0244,0.2002,2.3096,0.6714,0.354
0.7544,0.7739,0.4883,0.1465,0.0708,0.022,0.1978,2.2974,0.6494,0.3882
0.7593,0.7886,0.5029,0.1392,0.0659,0.0195,0.2002,2.2705,0.6689,0.376
0.7861,0.7837,0.498,0.1318,0.0586,0.0146,0.1904,2.2046,0.6421,0.3394
0.9082,0.8765,0.5347,0.1343,0.0586,0.0171,0.188,2.1118,0.6226,0.3101
0.9399,0.9351,0.5469,0.1318,0.0562,0.0171,0.1807,2.0679,0.6396,0.3174
0.918,0.9375,0.5396,0.1294,0.0537,0.0122,0.166,2.2656,0.6348,0.3345
0.8765,0.9717,0.5444,0.1245,0.0513,0.0073,0.1538,2.4268,0.6226,0.3149
0.8618,0.9546,0.5225,0.1196,0.0488,0.0049,0.1416,2.4048,0.5957,0.2808
0.835,0.8862,0.4932,0.1074,0.0439,0.0049,0.1416,2.3657,0.5811,0.2515
0.8203,0.8301,0.4468,0.0952,0.0366,0.0049,0.1416,2.3291,0.5469,0.2246
0.835,0.8789,0.4419,0.0928,0.0317,0.0049,0.1416,2.2925,0.5469,0.2173
0.8276,0.9058,0.4541,0.0903,0.0269,0.0073,0.1367,2.1704,0.5371,0.2026
0.7935,0.8594,0.437,0.0854,0.0269,0.0098,0.1392,1.98,0.498,0.1953
0.7495,0.8398,0.4321,0.0806,0.0244,0.0122,0.1367,1.853,0.4565,0.1807
0.7788,0.8496,0.437,0.0806,0.022,0.0122,0.1392,1.8188,0.4321,0.1733
0.7666,0.9204,0.498,0.083,0.0244,0.0171,0.1538,2.0386,0.5542,0.1807
0.7251,0.9033,0.5005,0.0781,0.0244,0.0171,0.1538,2.1167,0.6494,0.1807
0.6934,0.9131,0.5054,0.0781,0.0269,0.0146,0.1538,2.1753,0.7031,0.1904
0.6885,0.9058,0.4834,0.0732,0.0244,0.0122,0.1538,2.1899,0.6958,0.1953
0.6665,0.8325,0.4321,0.0659,0.0195,0.0073,0.1489,2.1289,0.6396,0.1831
0.6274,0.7397,0.3906,0.061,0.0171,0.0024,0.1367,1.958,0.564,0.1636
0.603,0.7104,0.3955,0.0684,0.0171,0.0024,0.1294,1.7432,0.4932,0.1782
0.5933,0.7104,0.3906,0.0708,0.0146,0.0024,0.1196,1.5576,0.4272,0.1929
0.5859,0.6836,0.3809,0.0708,0.0122,0.0024,0.1147,1.4771,0.3809,0.1929
0.5664,0.6714,0.3882,0.0757,0.0146,0.0024,0.1099,1.4917,0.4004,0.1831
0.5981,0.6494,0.3613,0.0708,0.0098,0.0024,0.1001,1.4648,0.3906,0.1611
0.6372,0.6055,0.3296,0.0635,0.0024,0.0024,0.0928,1.4087,0.3613,0.144
0.6274,0.5469,0.3271,0.0562,0.0024,0.0024,0.0806,1.2964,0.3198,0.1196
0.5957,0.4956,0.3345,0.0537,0.0024,0.0024,0.0732,1.1646,0.3076,0.0977
0.564,0.4468,0.3271,0.0488,0.0024,0.0024,0.0684,1.0376,0.2954,0.0806
0.5176,0.3882,0.2954,0.0439,0.0024,0.0024,0.0684,0.9399,0.271,0.0659
0.4858,0.3857,0.3101,0.0415,0.0049,0.0024,0.0757,1.0107,0.3052,0.0732
0.481,0.4419,0.3491,0.0439,0.0098,0.0024,0.083,1.1328,0.3369,0.083
0.4785,0.4688,0.3589,0.0488,0.0122,0.0024,0.0854,1.25,0.3613,0.0928
0.4834,0.4565,0.3467,0.0488,0.0146,0.0024,0.0854,1.2817,0.3564,0.0903
0.4639,0.415,0.3174,0.0513,0.0122,0.0024,0.0928,1.2305,0.3271,0.0781
0.4297,0.3711,0.2881,0.0513,0.0122,0.0024,0.0903,1.123,0.2881,0.0684
0.3882,0.3418,0.2783,0.0488,0.0098,0.0024,0.0757,1.0083,0.2905,0.0562
0.3882,0.3662,0.3223,0.0513,0.0122,0.0024,0.0781,0.9814,0.3442,0.0488
0.4077,0.3931,0.3223,0.0488,0.0098,0.0024,0.0854,0.9863,0.3467,0.0415
0.4346,0.4248,0.3394,0.0415,0.0073,0.0024,0.0879,1.0107,0.3394,0.0342
0.4321,0.4175,0.3467,0.0439,0.0098,0.0024,0.0879,0.9717,0.3271,0.0293
0.4126,0.415,0.3467,0.0439,0.0122,0.0049,0.083,0.896,0.3247,0.0293
0.3906,0.4102,0.3394,0.0439,0.0146,0.0024,0.0781,0.8984,0.3198,0.0269
0.3857,0.3906,0.3247,0.0439,0.0146,0.0024,0.0781,0.9326,0.3247,0.0317
0.3638,0.3687,0.3247,0.0464,0.0146,0.0024,0.0732,0.9155,0.3125,0.0342
0.3516,0.3711,0.3271,0.0464,0.0122,0.0024,0.0732,0.979,0.3735,0.0342
0.376,0.3784,0.3247,0.0513,0.0122,0.0024,0.0854,1.0938,0.4102,0.0366
0.3931,0.3833,0.2979,0.0513,0.0049,0.0024,0.0854,1.1157,0.4126,0.0342
0.3906,0.415,0.2637,0.0439,0.0024,0.0024,0.0781,1.0498,0.4028,0.0317
0.3564,0.3931,0.2295,0.0366,0.0024,0.0024,0.0635,0.9351,0.3687,0.0244
0.3101,0.354,0.1953,0.0293,0.0024,0.0024,0.0488,0.8105,0.3467,0.0171
0.2905,0.3296,0.1758,0.022,0.0024,0.0024,0.0366,0.7031,0.3369,0.0122
0.2881,0.3052,0.1636,0.0171,0.0024,0.0024,0.0391,0.6226,0.3101,0.0049
0.2759,0.2734,0.1611,0.0146,0.0024,0.0024,0.0464,0.6348,0.2686,0.0024
0.271,0.2393,0.1489,0.0098,0.0024,0.0024,0.0464,0.7373,0.2271,0.0024
0.2515,0.2148,0.127,0.0024,0.0024,0.0024,0.0464,0.7544,0.188,0.0024
0.2393,0.1978,0.1074,0.0024,0.0024,0.0024,0.0488,0.7104,0.1514,0.0024
0.2368,0.1953,0.0879,0.0024,0.0024,0.0024,0.0439,0.6372,0.1221,0.0024
0.249,0.1855,0.0757,0.0024,0.0024,0.0024,0.0439,0.564,0.0977,0.0024
0.2393,0.1807,0.0732,0.0024,0.0024,0.0024,0.0391,0.5005,0.0806,0.0024
0.2393,0.1685,0.0635,0.0024,0.0024,0.0024,0.0293,0.4321,0.0635,0.0024
0.2222,0.1465,0.0513,0.0024,0.0024,0.0024,0.0269,0.3784,0.0488,0.0024
0.1953,0.1196,0.0391,0.0024,0.0024,0.0024,0.0317,0.354,0.0342,0.0024
0.1709,0.0928,0.0269,0.0024,0.0024,0.0024,0.0317,0.3223,0.0244,0.0024
0.1489,0.0708,0.0171,0.0024,0.0024,0.0024,0.0317,0.2979,0.0146,0.0024
0.127,0.0562,0.0098,0.0024,0.0024,0.0024,0.0269,0.3076,0.0073,0.0024
0.1172,0.0562,0.022,0.0049,0.0024,0.0024,0.0269,0.3687,0.0317,0.0024
0.1147,0.0586,0.0317,0.0049,0.0024,0.0024,0.0269,0.3906,0.0562,0.0024
0.1123,0.0659,0.0293,0.0024,0.0024,0.0024,0.022,0.3833,0.061,0.0024
0.1001,0.061,0.022,0.0024,0.0024,0.0024,0.0195,0.3589,0.0708,0.0024
0.0928,0.0513,0.0171,0.0024,0.0024,0.0024,0.022,0.332,0.0732,0.0024
0.0952,0.0439,0.0122,0.0024,0.0024,0.0024,0.0342,0.3149,0.0684,0.0024
0.1001,0.0513,0.0098,0.0024,0.0024,0.0024,0.0391,0.2905,0.0562,0.0024
0.1025,0.0537,0.0098,0.0024,0.0024,0.0024,0.0366,0.2588,0.0439,0.0024
0.0952,0.0464,0.0024,0.0024,0.0024,0.0024,0.0293,0.2441,0.0317,0.0024
0.0854,0.0391,0.0073,0.0024,0.0024,0.0024,0.022,0.2734,0.022,0.0024
0.105,0.0415,0.0073,0.0024,0.0024,0.0024,0.0195,0.332,0.0171,0.0024
0.1831,0.0635,0.0269,0.0024,0.0024,0.0024,0.0269,0.3711,0.022,0.0024
0.2588,0.1074,0.0415,0.0024,0.0024,0.0024,0.0342,0.3906,0.0342,0.0024
0.2808,0.1318,0.0659,0.0049,0.0024,0.0024,0.0342,0.3931,0.0342,0.0024
0.2759,0.1392,0.0708,0.0024,0.0024,0.0024,0.0342,0.3809,0.0293,0.0024
0.2515,0.127,0.0635,0.0024,0.0024,0.0024,0.0244,0.3442,0.0195,0.0024
0.2148,0.105,0.0488,0.0024,0.0024,0.0024,0.0171,0.3003,0.0073,0.0024
0.1758,0.0806,0.0317,0.0024,0.0024,0.0024,0.0122,0.2588,0.0024,0.0024
0.1538,0.061,0.022,0.0024,0.0024,0.0024,0.022,0.2417,0.0024,0.0024
0.1416,0.0415,0.022,0.0024,0.0024,0.0024,0.022,0.2344,0.0024,0.0024
0.1392,0.0366,0.0244,0.0024,0.0024,0.0024,0.022,0.2417,0.0024,0.0024
0.1514,0.0513,0.0195,0.0024,0.0024,0.0024,0.0269,0.249,0.0024,0.0024
0.1587,0.0586,0.0195,0.0024,0.0024,0.0024,0.0269,0.2393,0.0024,0.0024
0.1538,0.0635,0.0122,0.0024,0.0024,0.0024,0.0195,0.2441,0.0024,0.0024
0.1465,0.0635,0.0073,0.0024,0.0024,0.0024,0.0146,0.2368,0.0024,0.0024
0.1392,0.0562,0.0024,0.0024,0.0024,0.0024,0.0146,0.2246,0.0024,0.0024
0.1416,0.0464,0.0024,0.0024,0.0024,0.0024,0.0098,0.2295,0.0024,0.0024
0.1392,0.0317,0.0024,0.0024,0.0024,0.0024,0.0098,0.2368,0.0024,0.0024
0.1294,0.0195,0.0024,0.0024,0.0024,0.0024,0.0146,0.2344,0.0024,0.0024
0.1172,0.0049,0.0024,0.0024,0.0024,0.0049,0.0244,0.2393,0.0024,0.0024
0.1074,0.0024,0.0098,0.0024,0.0024,0.0024,0.0317,0.2319,0.0024,0.0024
0.1294,0.0171,0.0391,0.0073,0.0024,0.0024,0.0342,0.2271,0.0024,0.0024
0.1538,0.0269,0.0464,0.0049,0.0024,0.0024,0.0269,0.2319,0.0024,0.0024
0.1563,0.0317,0.0415,0.0024,0.0024,0.0024,0.0171,0.2148,0.0024,0.0024
0.144,0.0269,0.0317,0.0024,0.0024,0.0024,0.0122,0.1929,0.0049,0.0024
0.1294,0.0171,0.022,0.0024,0.0024,0.0024,0.0171,0.1855,0.0171,0.0024
0.1147,0.0073,0.0122,0.0024,0.0024,0.0024,0.0146,0.1782,0.0195,0.0024
0.1025,0.0024,0.0024,0.0024,0.0024,0.0024,0.0171,0.2026,0.0146,0.0024
0.0903,0.0024,0.0024,0.0024,0.0024,0.0024,0.0146,0.2319,0.0122,0.0024
0.0806,0.0024,0.0024,0.0024,0.0024,0.0024,0.0122,0.2417,0.0024,0.0024
0.0732,0.0024,0.0024,0.0024,0.0024,0.0024,0.0073,0.2466,0.0024,0.0024
0.0659,0.0024,0.0024,0.0024,0.0024,0.0024,0.0024,0.2295,0.0024,0.0024
0.0708,0.0024,0.0049,0.0024,0.0024,0.0024,0.0024,0.2051,0.0024,0.0024
0.0757,0.0122,0.0269,0.0024,0.0024,0.0024,0.0122,0.1855,0.0293,0.0024
0.083,0.0195,0.0415,0.0024,0.0024,0.0024,0.0146,0.1758,0.0513,0.0024
0.0903,0.0195,0.0415,0.0024,0.0024,0.0024,0.0122,0.1685,0.0537,0.0024
0.0879,0.0171,0.0366,0.0024,0.0024,0.0024,0.0146,0.1831,0.0464,0.0024
0.0854,0.0098,0.0269,0.0024,0.0024,0.0024,0.0244,0.1953,0.0366,0.0024
0.083,0.0024,0.0171,0.0024,0.0024,0.0024,0.0293,0.21,0.0244,0.0024
0.0732,0.0024,0.0049,0.0024,0.0024,0.0024,0.0317,0.2173,0.0146,0.0024
0.0659,0.0024,0.0024,0.0024,0.0024,0.0024,0.0293,0.2271,0.0049,0.0024
0.0659,0.0024,0.0024,0.0024,0.0024,0.0024,0.0244,0.2441,0.0024,0.0024
0.061,0.0024,0.0024,0.0024,0.0024,0.0024,0.0195,0.2563,0.0024,0.0024
0.0537,0.0024,0.0024,0.0024,0.0024,0.0024,0.0195,0.2441,0.0024,0.0024
0.0464,0.0024,0.0024,0.0024,0.0024,0.0024,0.0171,0.2197,0.0269,0.0024
0.0366,0.0024,0.0024,0.0024,0.0024,0.0024,0.0098,0.1904,0.0488,0.0024
0.0293,0.0024,0.0024,0.0024,0.0024,0.0024,0.0049,0.1733,0.0513,0.0024
0.022,0.0024,0.0024,0.0024,0.0024,0.0024,0.0024,0.1514,0.0439,0.0024
0.0171,0.0024,0.0024,0.0024,0.0024,0.0024,0.0024,0.1367,0.0317,0.0024
0.0195,0.0024,0.0024,0.0024,0.0024,0.0024,0.0024,0.1611,0.0195,0.0024
0.0244,0.0024,0.0024,0.0024,0.0024,0.0024,0.0024,0.21,0.0098,0.0024
0.022,0.0024,0.0024,0.0024,0.0024,0.0024,0.0024,0.2295,0.0024,0.0024
0.0195,0.0024,0.0024,0.0024,0.0024,0.0024,0.0024,0.2222,0.0024,0.0024
0.022,0.0024,0.0024,0.0024,0.0024,0.0024,0.0293,0.2344,0.0024,0.022
0.022,0.0024,0.0024,0.0024,0.0024,0.0024,0.0537,0.2368,0.0024,0.0342
0.022,0.0024,0.0024,0.0024,0.0024,0.0024,0.1074,0.2271,0.0024,0.0513
0.0293,0.0024,0.0024,0.0024,0.0024,0.0024,0.2051,0.2197,0.0024,0.0635
0.0293,0.0024,0.0024,0.0024,0.0024,0.0024,0.2515,0.1978,0.0024,0.0635
0.022,0.0024,0.0024,0.0024,0.0049,0.0024,0.2466,0.1733,0.0024,0.0562
0.0244,0.0024,0.0024,0.0024,0.0024,0.0024,0.2393,0.1855,0.0269,0.0537
0.0244,0.0049,0.0024,0.0024,0.0024,0.0024,0.2222,0.1904,0.0732,0.0464
0.0244,0.0293,0.0024,0.0024,0.0024,0.0024,0.249,0.1929,0.0903,0.0464
0.0342,0.0659,0.0098,0.0024,0.0024,0.0049,0.3491,0.2124,0.1196,0.0488
0.0317,0.1196,0.0317,0.0024,0.0024,0.0024,0.4272,0.2222,0.1733,0.0488
0.0269,0.1367,0.0342,0.0024,0.0024,0.0024,0.4443,0.2124,0.1929,0.0391
0.0244,0.1245,0.0293,0.0024,0.0024,0.0024,0.4224,0.21,0.1831,0.0293
0.0195,0.1025,0.0195,0.0024,0.0024,0.0024,0.3711,0.1978,0.1611,0.0195
0.0122,0.0781,0.0098,0.0024,0.0049,0.0024,0.3149,0.1733,0.1318,0.0171
0.0049,0.0537,0.0024,0.0024,0.0024,0.0024,0.2686,0.1563,0.1025,0.0146
0.0024,0.0342,0.0024,0.0024,0.0024,0.0024,0.249,0.1514,0.0757,0.0098
0.0024,0.0146,0.0024,0.0024,0.0024,0.0024,0.2563,0.144,0.0562,0.0049
0.0024,0.0024,0.0024,0.0024,0.0024,0.0024,0.2563,0.1343,0.0366,0.0024
0.0024,0.0024,0.0024,0.0024,0.0024,0.0024,0.2417,0.1221,0.022,0.0073
0.0024,0.0024,0.0024,0.0024,0.0024,0.0024,0.2368,0.127,0.0098,0.0122
0.0024,0.0024,0.0024,0.0024,0.0024,0.0024,0.2148,0.127,0.0024,0.0122
0.0024,0.0024,0.0024,0.0024,0.0024,0.0024,0.2466,0.144,0.0024,0.022
0.0024,0.0024,0.0024,0.0024,0.0024,0.0024,0.3467,0.166,0.0024,0.0293
0.0049,0.0024,0.0024,0.0024,0.0024,0.0024,0.4517,0.1782,0.0024,0.0439
0.0098,0.0024,0.0024,0.0024,0.0024,0.0024,0.52,0.1855,0.0024,0.0513
0.0122,0.0024,0.0024,0.0024,0.0024,0.0024,0.5103,0.1978,0.0024,0.061
0.0146,0.0024,0.0024,0.0024,0.0024,0.0024,0.4639,0.21,0.0024,0.061
0.0146,0.0024,0.0024,0.0024,0.0024,0.0024,0.3979,0.2075,0.0024,0.0537
0.0146,0.0269,0.0024,0.0024,0.0024,0.0024,0.3979,0.2124,0.0024,0.0562
0.0171,0.0293,0.0024,0.0024,0.0024,0.0024,0.4248,0.2124,0.0024,0.0537
0.0122,0.022,0.0024,0.0024,0.0024,0.0024,0.4028,0.1929,0.0024,0.0488
0.0073,0.0122,0.0024,0.0024,0.0024,0.0024,0.3711,0.1807,0.0024,0.0513
0.0049,0.0024,0.0024,0.0024,0.0024,0.0024,0.3833,0.1758,0.0024,0.0659
0.0073,0.0024,0.0024,0.0024,0.0024,0.0024,0.4224,0.1733,0.0024,0.0732
0.0049,0.0024,0.0024,0.0024,0.0024,0.0024,0.4028,0.1685,0.0024,0.0708
0.0073,0.0024,0.0024,0.0024,0.0024,0.0024,0.4224,0.2026,0.0024,0.0757
0.0049,0.0024,0.0024,0.0024,0.0024,0.0024,0.4224,0.2148,0.0024,0.0684
0.0024,0.0024,0.0024,0.0024,0.0024,0.0024,0.3833,0.21,0.0024,0.0562
0.0024,0.0024,0.0024,0.0024,0.0024,0.0024,0.3345,0.2002,0.0024,0.0464
0.0098,0.0024,0.0024,0.0024,0.0024,0.0024,0.3052,0.1953,0.0024,0.0464
0.0122,0.0024,0.0024,0.0024,0.0024,0.0024,0.2637,0.1807,0.0024,0.0366
0.0073,0.0024,0.0024,0.0024,0.0024,0.0024,0.2344,0.1636,0.0024,0.0342
0.0098,0.0024,0.0024,0.0024,0.0024,0.0024,0.2808,0.1587,0.0024,0.0464
0.0073,0.0024,0.0024,0.0024,0.0024,0.0024,0.3003,0.1538,0.0024,0.0513
0.0073,0.0024,0.0024,0.0024,0.0024,0.0024,0.2856,0.144,0.0024,0.0464
0.0049,0.0024,0.0024,0.0024,0.0024,0.0024,0.2539,0.1318,0.0024,0.0391
0.0024,0.0024,0.0024,0.0024,0.0024,0.0024,0.2319,0.1367,0.0024,0.0391
0.0049,0.0024,0.0024,0.0024,0.0024,0.0024,0.2173,0.1538,0.0024,0.0366
0.0024,0.0024,0.0024,0.0024,0.0024,0.0024,0.1904,0.1538,0.0024,0.0317
0.0024,0.0024,0.0024,0.0024,0.0024,0.0024,0.1855,0.1807,0.0024,0.0293
0.0024,0.0049,0.0024,0.0024,0.0024,0.0024,0.1782,0.188,0.0024,0.0244
0.0024,0.0024,0.0024,0.0024,0.0024,0.0024,0.1636,0.188,0.0024,0.0171
0.0024,0.0024,0.0024,0.0024,0.0024,0.0024,0.1416,0.1831,0.0024,0.0171
0.0024,0.0024,0.0024,0.0024,0.0024,0.0024,0.1172,0.1685,0.0024,0.0171
0.0024,0.0024,0.0024,0.0024,0.0024,0.0024,0.0903,0.1538,0.0024,0.0122
0.0073,0.0024,0.0024,0.0024,0.0024,0.0024,0.0708,0.1465,0.0024,0.0073
0.0098,0.0024,0.0024,0.0024,0.0024,0.0024,0.0708,0.1563,0.0024,0.0073
0.0122,0.0024,0.0024,0.0024,0.0024,0.0024,0.0806,0.1782,0.0024,0.0146
0.0146,0.0024,0.0024,0.0024,0.0024,0.0024,0.1196,0.2075,0.0024,0.0146
0.0146,0.0024,0.0024,0.0024,0.0024,0.0024,0.1807,0.2124,0.0024,0.0122
0.0098,0.0024,0.0024,0.0024,0.0024,0.0024,0.1929,0.2002,0.0024,0.0098
0.0049,0.0024,0.0024,0.0024,0.0024,0.0024,0.1855,0.1978,0.0024,0.0024
0.0049,0.0024,0.0024,0.0024,0.0024,0.0024,0.1636,0.188,0.0024,0.0049
0.0024,0.0024,0.0024,0.0024,0.0024,0.0024,0.1514,0.1758,0.0024,0.0098
0.0024,0.0024,0.0024,0.0024,0.0024,0.0024,0.1538,0.1611,0.0024,0.0098
0.0024,0.0024,0.0024,0.0024,0.0024,0.0024,0.1416,0.1416,0.0024,0.0073
0.0024,0.0024,0.0024,0.0024,0.0024,0.0024,0.1196,0.1172,0.0024,0.0024
0.0024,0.0024,0.0024,0.0024,0.0024,0.0024,0.0952,0.105,0.0024,0.0024
0.0024,0.0024,0.0024,0.0024,0.0024,0.0024,0.0781,0.0952,0.0024,0.0024
0.0024,0.0024,0.0024,0.0024,0.0024,0.0024,0.0659,0.0952,0.0024,0.0024
0.0024,0.0024,0.0024,0.0024,0.0024,0.0024,0.0586,0.1001,0.0024,0.0024
0.0024,0.0024,0.0024,0.0024,0.0024,0.0024,0.1221,0.1367,0.0024,0.0024
0.0024,0.0024,0.0024,0.0024,0.0049,0.0024,0.1563,0.1538,0.0024,0.0024
0.0024,0.0024,0.0024,0.0024,0.0024,0.0024,0.1611,0.1514,0.0024,0.0024
0.0049,0.0024,0.0024,0.0024,0.0024,0.0024,0.1514,0.1514,0.0024,0.0024
0.0098,0.0024,0.0024,0.0024,0.0024,0.0024,0.1343,0.1514,0.0024,0.0024
0.0073,0.0024,0.0024,0.0024,0.0024,0.0024,0.1147,0.1392,0.0024,0.0024
0.0024,0.0024,0.0024,0.0024,0.0024,0.0024,0.0928,0.127,0.0024,0.0073
0.0024,0.0024,0.0024,0.0024,0.0024,0.0024,0.0732,0.1123,0.0024,0.0098
0.0024,0.0024,0.0024,0.0024,0.0024,0.0024,0.0513,0.1025,0.0024,0.0098
0.0024,0.0024,0.0024,0.0024,0.0024,0.0024,0.0415,0.1001,0.0024,0.0146
0.0024,0.0024,0.0024,0.0024,0.0024,0.0024,0.0464,0.105,0.0024,0.0122
0.0049,0.0024,0.0024,0.0024,0.0024,0.0024,0.0513,0.1074,0.0024,0.0098
0.0024,0.0024,0.0024,0.0024,0.0049,0.0024,0.0732,0.1074,0.0024,0.0122
0.0024,0.0024,0.0024,0.0024,0.0024,0.0024,0.0879,0.105,0.0024,0.0146
0.0024,0.0024,0.0024,0.0024,0.0024,0.0024,0.0854,0.1025,0.0024,0.0122
0.0024,0.0024,0.0024,0.0024,0.0024,0.0024,0.0757,0.0952,0.0024,0.0098
0.0024,0.0024,0.0024,0.0024,0.0024,0.0024,0.0854,0.0952,0.0024,0.0073
0.0024,0.0024,0.0024,0.0024,0.0024,0.0024,0.083,0.0928,0.0024,0.0049
0.0024,0.0024,0.0024,0.0024,0.0024,0.0024,0.0781,0.0952,0.0024,0.0024
0.0049,0.0024,0.0024,0.0024,0.0024,0.0024,0.0757,0.105,0.0024,0.0049
0.0073,0.0024,0.0024,0.0024,0.0024,0.0024,0.0879,0.105,0.0024,0.0049
0.0073,0.0024,0.0024,0.0024,0.0024,0.0024,0.1025,0.1099,0.0024,0.0098
0.0073,0.0024,0.0024,0.0024,0.0024,0.0024,0.1196,0.1172,0.0024,0.0269
0.0073,0.0024,0.0024,0.0024,0.0049,0.0024,0.1196,0.1294,0.0024,0.0366
0.0073,0.0024,0.0024,0.0024,0.0024,0.0024,0.1123,0.1392,0.0024,0.0342
0.0073,0.0024,0.0024,0.0024,0.0024,0.0024,0.1074,0.1416,0.0024,0.0317
0.0073,0.0024,0.0024,0.0024,0.0024,0.0024,0.1221,0.1343,0.0024,0.0269
0.0024,0.0024,0.0049,0.0024,0.0024,0.0024,0.1245,0.127,0.0024,0.0195
0.0024,0.0024,0.0024,0.0024,0.0024,0.0024,0.1294,0.1172,0.0024,0.0146
0.0024,0.0024,0.0024,0.0024,0.0024,0.0024,0.1147,0.1025,0.0024,0.0073
0.0024,0.0024,0.0024,0.0024,0.0024,0.0024,0.0977,0.0879,0.0024,0.0024
0.0024,0.0024,0.0024,0.0024,0.0024,0.0024,0.0757,0.0757,0.0024,0.0024
0.0024,0.0024,0.0024,0.0024,0.0024,0.0024,0.0586,0.0708,0.0024,0.0024
0.0073,0.0024,0.0024,0.0024,0.0024,0.0024,0.0513,0.0854,0.0024,0.0024
0.0122,0.0024,0.0049,0.0024,0.0024,0.0024,0.0537,0.0977,0.0024,0.0024
0.0098,0.0024,0.0024,0.0024,0.0024,0.0024,0.0537,0.105,0.0024,0.0024
0.0073,0.0024,0.0024,0.0024,0.0024,0.0024,0.0488,0.1025,0.0024,0.0024
0.0024,0.0024,0.0024,0.0024,0.0024,0.0024,0.0415,0.1001,0.0024,0.0024
0.0024,0.0024,0.0024,0.0024,0.0024,0.0024,0.0513,0.1001,0.0024,0.0024
0.0024,0.0024,0.0024,0.0024,0.0024,0.0024,0.0513,0.0952,0.0024,0.0024
0.0024,0.0024,0.0024,0.0024,0.0024,0.0024,0.0415,0.083,0.0024,0.0024
0.0024,0.0024,0.0024,0.0024,0.0024,0.0024,0.0391,0.0806,0.0024,0.0024
0.0073,0.0024,0.0049,0.0024,0.0024,0.0024,0.0366,0.0781,0.0024,0.0024
0.0073,0.0024,0.0024,0.0024,0.0024,0.0024,0.0488,0.0757,0.0024,0.0024
0.0073,0.0024,0.0049,0.0024,0.0024,0.0024,0.0659,0.0732,0.0024,0.0024
0.0024,0.0024,0.0024,0.0024,0.0024,0.0024,0.0684,0.0732,0.0024,0.0024
0.0024,0.0024,0.0024,0.0024,0.0024,0.0024,0.0635,0.0659,0.0024,0.0024
0.0024,0.0024,0.0024,0.0024,0.0024,0.0024,0.0513,0.0586,0.0024,0.0024
0.0024,0.0024,0.0024,0.0024,0.0024,0.0024,0.0464,0.0635,0.0024,0.0024
0.0024,0.0024,0.0024,0.0024,0.0024,0.0024,0.0391,0.0806,0.0024,0.0049
0.0024,0.0024,0.0024,0.0024,0.0024,0.0024,0.0342,0.1001,0.0024,0.0073
0.0024,0.0024,0.0024,0.0024,0.0024,0.0024,0.0317,0.1074,0.0024,0.0073
0.0024,0.0024,0.0024,0.0024,0.0024,0.0024,0.0269,0.1074,0.0024,0.0073
0.0024,0.0024,0.0024,0.0024,0.0024,0.0024,0.0269,0.1025,0.0024,0.0049
0.0024,0.0024,0.0024,0.0049,0.0024,0.0024,0.0415,0.1001,0.0024,0.0024
0.0024,0.0024,0.0049,0.0024,0.0024,0.0024,0.0562,0.105,0.0024,0.0049
0.0024,0.0024,0.0024,0.0024,0.0024,0.0024,0.0708,0.1245,0.0024,0.0146
